Created as New Dataset,Sample 001 By Laboratory Date Friday, November 21 2025
cm-1,A
4000.00,1.2405
3999.00,1.2401
3998.00,1.2399
3997.00,1.2398
3996.00,1.2398
3995.00,1.2399
3994.00,1.2398
3993.00,1.2397
3992.00,1.2396
3991.00,1.2397
3990.00,1.2399
3989.00,1.2402
3988.00,1.2404
3987.00,1.2404
3986.00,1.2402
3985.00,1.2399
3984.00,1.2396
3983.00,1.2394
3982.00,1.2391
3981.00,1.2389
3980.00,1.2387
3979.00,1.2386
3978.00,1.2386
3977.00,1.2385
3976.00,1.2383
3975.00,1.2380
3974.00,1.2376
3973.00,1.2374
3972.00,1.2374
3971.00,1.2375
3970.00,1.2375
3969.00,1.2375
3968.00,1.2373
3967.00,1.2370
3966.00,1.2366
3965.00,1.2362
3964.00,1.2358
3963.00,1.2359
3962.00,1.2361
3961.00,1.2365
3960.00,1.2367
3959.00,1.2365
3958.00,1.2362
3957.00,1.2358
3956.00,1.2357
3955.00,1.2358
3954.00,1.2361
3953.00,1.2362
3952.00,1.2362
3951.00,1.2363
3950.00,1.2365
3949.00,1.2370
3948.00,1.2373
3947.00,1.2373
3946.00,1.2370
3945.00,1.2368
3944.00,1.2368
3943.00,1.2371
3942.00,1.2375
3941.00,1.2378
3940.00,1.2379
3939.00,1.2378
3938.00,1.2372
3937.00,1.2364
3936.00,1.2358
3935.00,1.2357
3934.00,1.2360
3933.00,1.2364
3932.00,1.2364
3931.00,1.2362
3930.00,1.2360
3929.00,1.2360
3928.00,1.2361
3927.00,1.2361
3926.00,1.2362
3925.00,1.2363
3924.00,1.2365
3923.00,1.2366
3922.00,1.2366
3921.00,1.2366
3920.00,1.2365
3919.00,1.2365
3918.00,1.2364
3917.00,1.2361
3916.00,1.2358
3915.00,1.2355
3914.00,1.2353
3913.00,1.2350
3912.00,1.2346
3911.00,1.2342
3910.00,1.2341
3909.00,1.2345
3908.00,1.2351
3907.00,1.2358
3906.00,1.2365
3905.00,1.2369
3904.00,1.2372
3903.00,1.2374
3902.00,1.2374
3901.00,1.2373
3900.00,1.2371
3899.00,1.2370
3898.00,1.2371
3897.00,1.2373
3896.00,1.2375
3895.00,1.2375
3894.00,1.2372
3893.00,1.2367
3892.00,1.2359
3891.00,1.2352
3890.00,1.2351
3889.00,1.2358
3888.00,1.2369
3887.00,1.2376
3886.00,1.2376
3885.00,1.2369
3884.00,1.2364
3883.00,1.2366
3882.00,1.2370
3881.00,1.2372
3880.00,1.2366
3879.00,1.2356
3878.00,1.2350
3877.00,1.2350
3876.00,1.2352
3875.00,1.2353
3874.00,1.2350
3873.00,1.2347
3872.00,1.2348
3871.00,1.2352
3870.00,1.2355
3869.00,1.2357
3868.00,1.2360
3867.00,1.2364
3866.00,1.2367
3865.00,1.2365
3864.00,1.2360
3863.00,1.2357
3862.00,1.2355
3861.00,1.2352
3860.00,1.2347
3859.00,1.2342
3858.00,1.2339
3857.00,1.2341
3856.00,1.2347
3855.00,1.2355
3854.00,1.2360
3853.00,1.2367
3852.00,1.2377
3851.00,1.2386
3850.00,1.2388
3849.00,1.2382
3848.00,1.2371
3847.00,1.2359
3846.00,1.2350
3845.00,1.2342
3844.00,1.2335
3843.00,1.2329
3842.00,1.2328
3841.00,1.2332
3840.00,1.2337
3839.00,1.2339
3838.00,1.2340
3837.00,1.2342
3836.00,1.2346
3835.00,1.2350
3834.00,1.2350
3833.00,1.2346
3832.00,1.2339
3831.00,1.2332
3830.00,1.2327
3829.00,1.2323
3828.00,1.2319
3827.00,1.2316
3826.00,1.2314
3825.00,1.2318
3824.00,1.2325
3823.00,1.2332
3822.00,1.2332
3821.00,1.2325
3820.00,1.2318
3819.00,1.2316
3818.00,1.2320
3817.00,1.2325
3816.00,1.2326
3815.00,1.2322
3814.00,1.2318
3813.00,1.2315
3812.00,1.2312
3811.00,1.2310
3810.00,1.2308
3809.00,1.2306
3808.00,1.2302
3807.00,1.2297
3806.00,1.2296
3805.00,1.2299
3804.00,1.2306
3803.00,1.2311
3802.00,1.2311
3801.00,1.2308
3800.00,1.2306
3799.00,1.2309
3798.00,1.2313
3797.00,1.2313
3796.00,1.2308
3795.00,1.2299
3794.00,1.2292
3793.00,1.2288
3792.00,1.2284
3791.00,1.2278
3790.00,1.2270
3789.00,1.2264
3788.00,1.2261
3787.00,1.2261
3786.00,1.2264
3785.00,1.2269
3784.00,1.2274
3783.00,1.2277
3782.00,1.2279
3781.00,1.2279
3780.00,1.2277
3779.00,1.2273
3778.00,1.2270
3777.00,1.2268
3776.00,1.2270
3775.00,1.2272
3774.00,1.2275
3773.00,1.2279
3772.00,1.2281
3771.00,1.2280
3770.00,1.2276
3769.00,1.2270
3768.00,1.2268
3767.00,1.2268
3766.00,1.2267
3765.00,1.2262
3764.00,1.2256
3763.00,1.2255
3762.00,1.2260
3761.00,1.2267
3760.00,1.2272
3759.00,1.2273
3758.00,1.2273
3757.00,1.2272
3756.00,1.2273
3755.00,1.2275
3754.00,1.2278
3753.00,1.2281
3752.00,1.2284
3751.00,1.2288
3750.00,1.2296
3749.00,1.2305
3748.00,1.2314
3747.00,1.2322
3746.00,1.2327
3745.00,1.2327
3744.00,1.2320
3743.00,1.2311
3742.00,1.2306
3741.00,1.2304
3740.00,1.2301
3739.00,1.2297
3738.00,1.2293
3737.00,1.2291
3736.00,1.2289
3735.00,1.2288
3734.00,1.2287
3733.00,1.2285
3732.00,1.2281
3731.00,1.2275
3730.00,1.2271
3729.00,1.2268
3728.00,1.2264
3727.00,1.2258
3726.00,1.2250
3725.00,1.2246
3724.00,1.2244
3723.00,1.2243
3722.00,1.2241
3721.00,1.2237
3720.00,1.2237
3719.00,1.2238
3718.00,1.2242
3717.00,1.2245
3716.00,1.2248
3715.00,1.2251
3714.00,1.2253
3713.00,1.2253
3712.00,1.2255
3711.00,1.2258
3710.00,1.2263
3709.00,1.2266
3708.00,1.2263
3707.00,1.2256
3706.00,1.2247
3705.00,1.2240
3704.00,1.2237
3703.00,1.2236
3702.00,1.2235
3701.00,1.2232
3700.00,1.2229
3699.00,1.2228
3698.00,1.2230
3697.00,1.2232
3696.00,1.2232
3695.00,1.2232
3694.00,1.2234
3693.00,1.2237
3692.00,1.2240
3691.00,1.2242
3690.00,1.2245
3689.00,1.2249
3688.00,1.2251
3687.00,1.2251
3686.00,1.2250
3685.00,1.2248
3684.00,1.2245
3683.00,1.2240
3682.00,1.2237
3681.00,1.2236
3680.00,1.2239
3679.00,1.2243
3678.00,1.2247
3677.00,1.2250
3676.00,1.2252
3675.00,1.2255
3674.00,1.2264
3673.00,1.2277
3672.00,1.2290
3671.00,1.2295
3670.00,1.2290
3669.00,1.2279
3668.00,1.2271
3667.00,1.2266
3666.00,1.2262
3665.00,1.2256
3664.00,1.2247
3663.00,1.2234
3662.00,1.2222
3661.00,1.2214
3660.00,1.2213
3659.00,1.2219
3658.00,1.2228
3657.00,1.2236
3656.00,1.2240
3655.00,1.2243
3654.00,1.2250
3653.00,1.2261
3652.00,1.2274
3651.00,1.2285
3650.00,1.2294
3649.00,1.2307
3648.00,1.2321
3647.00,1.2328
3646.00,1.2326
3645.00,1.2317
3644.00,1.2306
3643.00,1.2294
3642.00,1.2283
3641.00,1.2272
3640.00,1.2264
3639.00,1.2258
3638.00,1.2256
3637.00,1.2255
3636.00,1.2254
3635.00,1.2253
3634.00,1.2252
3633.00,1.2254
3632.00,1.2263
3631.00,1.2277
3630.00,1.2287
3629.00,1.2290
3628.00,1.2288
3627.00,1.2287
3626.00,1.2288
3625.00,1.2287
3624.00,1.2283
3623.00,1.2276
3622.00,1.2269
3621.00,1.2265
3620.00,1.2263
3619.00,1.2264
3618.00,1.2267
3617.00,1.2269
3616.00,1.2271
3615.00,1.2270
3614.00,1.2268
3613.00,1.2268
3612.00,1.2270
3611.00,1.2272
3610.00,1.2271
3609.00,1.2265
3608.00,1.2256
3607.00,1.2248
3606.00,1.2243
3605.00,1.2240
3604.00,1.2240
3603.00,1.2240
3602.00,1.2240
3601.00,1.2237
3600.00,1.2234
3599.00,1.2231
3598.00,1.2230
3597.00,1.2229
3596.00,1.2224
3595.00,1.2216
3594.00,1.2206
3593.00,1.2200
3592.00,1.2201
3591.00,1.2208
3590.00,1.2213
3589.00,1.2214
3588.00,1.2213
3587.00,1.2213
3586.00,1.2215
3585.00,1.2215
3584.00,1.2213
3583.00,1.2209
3582.00,1.2206
3581.00,1.2203
3580.00,1.2201
3579.00,1.2199
3578.00,1.2198
3577.00,1.2197
3576.00,1.2196
3575.00,1.2193
3574.00,1.2190
3573.00,1.2189
3572.00,1.2190
3571.00,1.2194
3570.00,1.2198
3569.00,1.2202
3568.00,1.2206
3567.00,1.2210
3566.00,1.2212
3565.00,1.2212
3564.00,1.2210
3563.00,1.2208
3562.00,1.2205
3561.00,1.2203
3560.00,1.2202
3559.00,1.2202
3558.00,1.2201
3557.00,1.2199
3556.00,1.2196
3555.00,1.2195
3554.00,1.2195
3553.00,1.2196
3552.00,1.2197
3551.00,1.2197
3550.00,1.2196
3549.00,1.2194
3548.00,1.2192
3547.00,1.2189
3546.00,1.2188
3545.00,1.2187
3544.00,1.2188
3543.00,1.2191
3542.00,1.2197
3541.00,1.2203
3540.00,1.2208
3539.00,1.2210
3538.00,1.2209
3537.00,1.2205
3536.00,1.2200
3535.00,1.2196
3534.00,1.2195
3533.00,1.2195
3532.00,1.2196
3531.00,1.2197
3530.00,1.2196
3529.00,1.2194
3528.00,1.2191
3527.00,1.2188
3526.00,1.2187
3525.00,1.2187
3524.00,1.2188
3523.00,1.2191
3522.00,1.2195
3521.00,1.2198
3520.00,1.2199
3519.00,1.2199
3518.00,1.2198
3517.00,1.2199
3516.00,1.2201
3515.00,1.2202
3514.00,1.2202
3513.00,1.2201
3512.00,1.2202
3511.00,1.2206
3510.00,1.2210
3509.00,1.2213
3508.00,1.2215
3507.00,1.2216
3506.00,1.2215
3505.00,1.2215
3504.00,1.2215
3503.00,1.2217
3502.00,1.2222
3501.00,1.2227
3500.00,1.2230
3499.00,1.2230
3498.00,1.2227
3497.00,1.2223
3496.00,1.2222
3495.00,1.2224
3494.00,1.2228
3493.00,1.2230
3492.00,1.2231
3491.00,1.2230
3490.00,1.2229
3489.00,1.2229
3488.00,1.2232
3487.00,1.2237
3486.00,1.2242
3485.00,1.2245
3484.00,1.2246
3483.00,1.2245
3482.00,1.2244
3481.00,1.2246
3480.00,1.2249
3479.00,1.2251
3478.00,1.2251
3477.00,1.2249
3476.00,1.2246
3475.00,1.2244
3474.00,1.2243
3473.00,1.2243
3472.00,1.2244
3471.00,1.2248
3470.00,1.2253
3469.00,1.2258
3468.00,1.2260
3467.00,1.2258
3466.00,1.2257
3465.00,1.2258
3464.00,1.2263
3463.00,1.2268
3462.00,1.2269
3461.00,1.2266
3460.00,1.2264
3459.00,1.2264
3458.00,1.2266
3457.00,1.2267
3456.00,1.2267
3455.00,1.2267
3454.00,1.2266
3453.00,1.2265
3452.00,1.2265
3451.00,1.2268
3450.00,1.2271
3449.00,1.2274
3448.00,1.2277
3447.00,1.2280
3446.00,1.2285
3445.00,1.2291
3444.00,1.2297
3443.00,1.2302
3442.00,1.2303
3441.00,1.2300
3440.00,1.2296
3439.00,1.2292
3438.00,1.2289
3437.00,1.2289
3436.00,1.2292
3435.00,1.2298
3434.00,1.2304
3433.00,1.2308
3432.00,1.2309
3431.00,1.2311
3430.00,1.2316
3429.00,1.2319
3428.00,1.2320
3427.00,1.2318
3426.00,1.2316
3425.00,1.2317
3424.00,1.2323
3423.00,1.2332
3422.00,1.2342
3421.00,1.2347
3420.00,1.2349
3419.00,1.2350
3418.00,1.2351
3417.00,1.2355
3416.00,1.2357
3415.00,1.2359
3414.00,1.2358
3413.00,1.2358
3412.00,1.2358
3411.00,1.2360
3410.00,1.2363
3409.00,1.2367
3408.00,1.2372
3407.00,1.2378
3406.00,1.2385
3405.00,1.2390
3404.00,1.2392
3403.00,1.2393
3402.00,1.2395
3401.00,1.2400
3400.00,1.2405
3399.00,1.2407
3398.00,1.2405
3397.00,1.2403
3396.00,1.2405
3395.00,1.2410
3394.00,1.2416
3393.00,1.2422
3392.00,1.2425
3391.00,1.2426
3390.00,1.2426
3389.00,1.2428
3388.00,1.2432
3387.00,1.2437
3386.00,1.2442
3385.00,1.2445
3384.00,1.2447
3383.00,1.2452
3382.00,1.2458
3381.00,1.2465
3380.00,1.2471
3379.00,1.2473
3378.00,1.2475
3377.00,1.2476
3376.00,1.2478
3375.00,1.2482
3374.00,1.2484
3373.00,1.2485
3372.00,1.2484
3371.00,1.2485
3370.00,1.2488
3369.00,1.2492
3368.00,1.2498
3367.00,1.2503
3366.00,1.2507
3365.00,1.2510
3364.00,1.2515
3363.00,1.2520
3362.00,1.2525
3361.00,1.2528
3360.00,1.2532
3359.00,1.2538
3358.00,1.2546
3357.00,1.2555
3356.00,1.2561
3355.00,1.2563
3354.00,1.2564
3353.00,1.2563
3352.00,1.2563
3351.00,1.2565
3350.00,1.2568
3349.00,1.2574
3348.00,1.2583
3347.00,1.2592
3346.00,1.2600
3345.00,1.2604
3344.00,1.2605
3343.00,1.2605
3342.00,1.2605
3341.00,1.2605
3340.00,1.2605
3339.00,1.2607
3338.00,1.2610
3337.00,1.2614
3336.00,1.2620
3335.00,1.2625
3334.00,1.2627
3333.00,1.2627
3332.00,1.2626
3331.00,1.2625
3330.00,1.2627
3329.00,1.2630
3328.00,1.2633
3327.00,1.2634
3326.00,1.2633
3325.00,1.2631
3324.00,1.2628
3323.00,1.2623
3322.00,1.2617
3321.00,1.2611
3320.00,1.2607
3319.00,1.2606
3318.00,1.2607
3317.00,1.2609
3316.00,1.2609
3315.00,1.2607
3314.00,1.2603
3313.00,1.2599
3312.00,1.2595
3311.00,1.2592
3310.00,1.2589
3309.00,1.2587
3308.00,1.2585
3307.00,1.2583
3306.00,1.2583
3305.00,1.2585
3304.00,1.2585
3303.00,1.2583
3302.00,1.2577
3301.00,1.2571
3300.00,1.2567
3299.00,1.2567
3298.00,1.2568
3297.00,1.2568
3296.00,1.2566
3295.00,1.2562
3294.00,1.2560
3293.00,1.2558
3292.00,1.2555
3291.00,1.2551
3290.00,1.2546
3289.00,1.2545
3288.00,1.2546
3287.00,1.2549
3286.00,1.2549
3285.00,1.2548
3284.00,1.2547
3283.00,1.2544
3282.00,1.2538
3281.00,1.2532
3280.00,1.2528
3279.00,1.2526
3278.00,1.2528
3277.00,1.2530
3276.00,1.2530
3275.00,1.2530
3274.00,1.2529
3273.00,1.2526
3272.00,1.2525
3271.00,1.2526
3270.00,1.2527
3269.00,1.2528
3268.00,1.2526
3267.00,1.2522
3266.00,1.2519
3265.00,1.2517
3264.00,1.2517
3263.00,1.2519
3262.00,1.2522
3261.00,1.2525
3260.00,1.2529
3259.00,1.2531
3258.00,1.2530
3257.00,1.2525
3256.00,1.2519
3255.00,1.2514
3254.00,1.2511
3253.00,1.2512
3252.00,1.2514
3251.00,1.2517
3250.00,1.2521
3249.00,1.2524
3248.00,1.2525
3247.00,1.2526
3246.00,1.2526
3245.00,1.2526
3244.00,1.2526
3243.00,1.2524
3242.00,1.2519
3241.00,1.2514
3240.00,1.2512
3239.00,1.2515
3238.00,1.2522
3237.00,1.2527
3236.00,1.2529
3235.00,1.2526
3234.00,1.2521
3233.00,1.2515
3232.00,1.2511
3231.00,1.2510
3230.00,1.2511
3229.00,1.2512
3228.00,1.2510
3227.00,1.2506
3226.00,1.2501
3225.00,1.2495
3224.00,1.2489
3223.00,1.2484
3222.00,1.2482
3221.00,1.2480
3220.00,1.2477
3219.00,1.2473
3218.00,1.2468
3217.00,1.2464
3216.00,1.2462
3215.00,1.2462
3214.00,1.2459
3213.00,1.2452
3212.00,1.2444
3211.00,1.2439
3210.00,1.2437
3209.00,1.2439
3208.00,1.2443
3207.00,1.2446
3206.00,1.2448
3205.00,1.2446
3204.00,1.2441
3203.00,1.2436
3202.00,1.2435
3201.00,1.2435
3200.00,1.2435
3199.00,1.2432
3198.00,1.2428
3197.00,1.2422
3196.00,1.2418
3195.00,1.2415
3194.00,1.2413
3193.00,1.2410
3192.00,1.2406
3191.00,1.2401
3190.00,1.2398
3189.00,1.2394
3188.00,1.2391
3187.00,1.2388
3186.00,1.2386
3185.00,1.2384
3184.00,1.2382
3183.00,1.2378
3182.00,1.2372
3181.00,1.2364
3180.00,1.2359
3179.00,1.2356
3178.00,1.2357
3177.00,1.2358
3176.00,1.2355
3175.00,1.2347
3174.00,1.2336
3173.00,1.2327
3172.00,1.2321
3171.00,1.2319
3170.00,1.2317
3169.00,1.2314
3168.00,1.2311
3167.00,1.2311
3166.00,1.2313
3165.00,1.2314
3164.00,1.2312
3163.00,1.2309
3162.00,1.2305
3161.00,1.2303
3160.00,1.2303
3159.00,1.2302
3158.00,1.2300
3157.00,1.2297
3156.00,1.2291
3155.00,1.2285
3154.00,1.2281
3153.00,1.2278
3152.00,1.2277
3151.00,1.2277
3150.00,1.2275
3149.00,1.2273
3148.00,1.2270
3147.00,1.2266
3146.00,1.2262
3145.00,1.2257
3144.00,1.2253
3143.00,1.2250
3142.00,1.2248
3141.00,1.2245
3140.00,1.2242
3139.00,1.2239
3138.00,1.2237
3137.00,1.2235
3136.00,1.2234
3135.00,1.2231
3134.00,1.2228
3133.00,1.2225
3132.00,1.2223
3131.00,1.2223
3130.00,1.2224
3129.00,1.2223
3128.00,1.2221
3127.00,1.2219
3126.00,1.2218
3125.00,1.2217
3124.00,1.2218
3123.00,1.2222
3122.00,1.2226
3121.00,1.2227
3120.00,1.2224
3119.00,1.2219
3118.00,1.2214
3117.00,1.2211
3116.00,1.2211
3115.00,1.2213
3114.00,1.2216
3113.00,1.2217
3112.00,1.2216
3111.00,1.2215
3110.00,1.2216
3109.00,1.2218
3108.00,1.2220
3107.00,1.2223
3106.00,1.2226
3105.00,1.2227
3104.00,1.2227
3103.00,1.2227
3102.00,1.2230
3101.00,1.2235
3100.00,1.2240
3099.00,1.2242
3098.00,1.2240
3097.00,1.2238
3096.00,1.2239
3095.00,1.2244
3094.00,1.2250
3093.00,1.2255
3092.00,1.2259
3091.00,1.2261
3090.00,1.2261
3089.00,1.2262
3088.00,1.2266
3087.00,1.2273
3086.00,1.2282
3085.00,1.2289
3084.00,1.2296
3083.00,1.2303
3082.00,1.2311
3081.00,1.2317
3080.00,1.2321
3079.00,1.2324
3078.00,1.2329
3077.00,1.2336
3076.00,1.2344
3075.00,1.2352
3074.00,1.2359
3073.00,1.2367
3072.00,1.2377
3071.00,1.2389
3070.00,1.2401
3069.00,1.2412
3068.00,1.2422
3067.00,1.2431
3066.00,1.2439
3065.00,1.2445
3064.00,1.2452
3063.00,1.2459
3062.00,1.2465
3061.00,1.2468
3060.00,1.2467
3059.00,1.2466
3058.00,1.2468
3057.00,1.2475
3056.00,1.2483
3055.00,1.2491
3054.00,1.2497
3053.00,1.2503
3052.00,1.2509
3051.00,1.2514
3050.00,1.2517
3049.00,1.2519
3048.00,1.2523
3047.00,1.2529
3046.00,1.2535
3045.00,1.2542
3044.00,1.2547
3043.00,1.2551
3042.00,1.2556
3041.00,1.2562
3040.00,1.2570
3039.00,1.2577
3038.00,1.2583
3037.00,1.2590
3036.00,1.2598
3035.00,1.2607
3034.00,1.2614
3033.00,1.2620
3032.00,1.2627
3031.00,1.2635
3030.00,1.2645
3029.00,1.2655
3028.00,1.2665
3027.00,1.2677
3026.00,1.2692
3025.00,1.2710
3024.00,1.2727
3023.00,1.2742
3022.00,1.2755
3021.00,1.2768
3020.00,1.2783
3019.00,1.2802
3018.00,1.2826
3017.00,1.2852
3016.00,1.2877
3015.00,1.2898
3014.00,1.2916
3013.00,1.2933
3012.00,1.2952
3011.00,1.2974
3010.00,1.2999
3009.00,1.3025
3008.00,1.3052
3007.00,1.3078
3006.00,1.3103
3005.00,1.3126
3004.00,1.3146
3003.00,1.3166
3002.00,1.3187
3001.00,1.3212
3000.00,1.3239
2999.00,1.3265
2998.00,1.3291
2997.00,1.3320
2996.00,1.3354
2995.00,1.3394
2994.00,1.3441
2993.00,1.3495
2992.00,1.3557
2991.00,1.3626
2990.00,1.3701
2989.00,1.3781
2988.00,1.3866
2987.00,1.3961
2986.00,1.4067
2985.00,1.4187
2984.00,1.4321
2983.00,1.4471
2982.00,1.4635
2981.00,1.4813
2980.00,1.5007
2979.00,1.5218
2978.00,1.5448
2977.00,1.5696
2976.00,1.5964
2975.00,1.6250
2974.00,1.6557
2973.00,1.6887
2972.00,1.7242
2971.00,1.7622
2970.00,1.8025
2969.00,1.8442
2968.00,1.8864
2967.00,1.9284
2966.00,1.9695
2965.00,2.0095
2964.00,2.0486
2963.00,2.0870
2962.00,2.1255
2961.00,2.1642
2960.00,2.2015
2959.00,2.2348
2958.00,2.2610
2957.00,2.2788
2956.00,2.2897
2955.00,2.2961
2954.00,2.3007
2953.00,2.3047
2952.00,2.3079
2951.00,2.3087
2950.00,2.3059
2949.00,2.3005
2948.00,2.2951
2947.00,2.2923
2946.00,2.2936
2945.00,2.3009
2944.00,2.3166
2943.00,2.3419
2942.00,2.3757
2941.00,2.4145
2940.00,2.4542
2939.00,2.4916
2938.00,2.5263
2937.00,2.5614
2936.00,2.6007
2935.00,2.6453
2934.00,2.6919
2933.00,2.7389
2932.00,2.7901
2931.00,2.8512
2930.00,2.9216
2929.00,2.9942
2928.00,3.0597
2927.00,3.1067
2926.00,3.1226
2925.00,3.1101
2924.00,3.0922
2923.00,3.0847
2922.00,3.0778
2921.00,3.0518
2920.00,3.0063
2919.00,2.9576
2918.00,2.9144
2917.00,2.8750
2916.00,2.8364
2915.00,2.7978
2914.00,2.7580
2913.00,2.7142
2912.00,2.6657
2911.00,2.6148
2910.00,2.5646
2909.00,2.5192
2908.00,2.4823
2907.00,2.4531
2906.00,2.4263
2905.00,2.3959
2904.00,2.3622
2903.00,2.3308
2902.00,2.3062
2901.00,2.2878
2900.00,2.2716
2899.00,2.2540
2898.00,2.2339
2897.00,2.2126
2896.00,2.1915
2895.00,2.1710
2894.00,2.1499
2893.00,2.1268
2892.00,2.1011
2891.00,2.0739
2890.00,2.0475
2889.00,2.0241
2888.00,2.0049
2887.00,1.9896
2886.00,1.9759
2885.00,1.9618
2884.00,1.9473
2883.00,1.9345
2882.00,1.9256
2881.00,1.9216
2880.00,1.9222
2879.00,1.9270
2878.00,1.9354
2877.00,1.9468
2876.00,1.9608
2875.00,1.9770
2874.00,1.9950
2873.00,2.0134
2872.00,2.0304
2871.00,2.0445
2870.00,2.0551
2869.00,2.0635
2868.00,2.0718
2867.00,2.0825
2866.00,2.0965
2865.00,2.1137
2864.00,2.1335
2863.00,2.1559
2862.00,2.1815
2861.00,2.2106
2860.00,2.2432
2859.00,2.2794
2858.00,2.3181
2857.00,2.3566
2856.00,2.3898
2855.00,2.4128
2854.00,2.4243
2853.00,2.4270
2852.00,2.4241
2851.00,2.4139
2850.00,2.3902
2849.00,2.3485
2848.00,2.2910
2847.00,2.2243
2846.00,2.1540
2845.00,2.0836
2844.00,2.0156
2843.00,1.9514
2842.00,1.8912
2841.00,1.8348
2840.00,1.7820
2839.00,1.7333
2838.00,1.6892
2837.00,1.6499
2836.00,1.6147
2835.00,1.5829
2834.00,1.5536
2833.00,1.5264
2832.00,1.5013
2831.00,1.4785
2830.00,1.4581
2829.00,1.4401
2828.00,1.4246
2827.00,1.4110
2826.00,1.3988
2825.00,1.3871
2824.00,1.3761
2823.00,1.3661
2822.00,1.3573
2821.00,1.3496
2820.00,1.3428
2819.00,1.3365
2818.00,1.3305
2817.00,1.3245
2816.00,1.3186
2815.00,1.3132
2814.00,1.3084
2813.00,1.3042
2812.00,1.3003
2811.00,1.2965
2810.00,1.2926
2809.00,1.2886
2808.00,1.2845
2807.00,1.2806
2806.00,1.2769
2805.00,1.2735
2804.00,1.2706
2803.00,1.2681
2802.00,1.2659
2801.00,1.2639
2800.00,1.2616
2799.00,1.2592
2798.00,1.2568
2797.00,1.2545
2796.00,1.2526
2795.00,1.2508
2794.00,1.2489
2793.00,1.2470
2792.00,1.2450
2791.00,1.2429
2790.00,1.2408
2789.00,1.2387
2788.00,1.2367
2787.00,1.2349
2786.00,1.2333
2785.00,1.2320
2784.00,1.2306
2783.00,1.2291
2782.00,1.2276
2781.00,1.2263
2780.00,1.2252
2779.00,1.2244
2778.00,1.2234
2777.00,1.2222
2776.00,1.2208
2775.00,1.2196
2774.00,1.2186
2773.00,1.2178
2772.00,1.2170
2771.00,1.2162
2770.00,1.2153
2769.00,1.2144
2768.00,1.2135
2767.00,1.2127
2766.00,1.2122
2765.00,1.2119
2764.00,1.2116
2763.00,1.2112
2762.00,1.2108
2761.00,1.2105
2760.00,1.2103
2759.00,1.2101
2758.00,1.2098
2757.00,1.2094
2756.00,1.2091
2755.00,1.2089
2754.00,1.2088
2753.00,1.2087
2752.00,1.2085
2751.00,1.2081
2750.00,1.2079
2749.00,1.2078
2748.00,1.2077
2747.00,1.2076
2746.00,1.2076
2745.00,1.2079
2744.00,1.2084
2743.00,1.2089
2742.00,1.2093
2741.00,1.2097
2740.00,1.2099
2739.00,1.2099
2738.00,1.2100
2737.00,1.2102
2736.00,1.2107
2735.00,1.2115
2734.00,1.2127
2733.00,1.2138
2732.00,1.2145
2731.00,1.2148
2730.00,1.2149
2729.00,1.2148
2728.00,1.2147
2727.00,1.2146
2726.00,1.2145
2725.00,1.2142
2724.00,1.2137
2723.00,1.2133
2722.00,1.2128
2721.00,1.2124
2720.00,1.2120
2719.00,1.2115
2718.00,1.2110
2717.00,1.2105
2716.00,1.2099
2715.00,1.2090
2714.00,1.2080
2713.00,1.2068
2712.00,1.2059
2711.00,1.2052
2710.00,1.2048
2709.00,1.2047
2708.00,1.2046
2707.00,1.2043
2706.00,1.2037
2705.00,1.2030
2704.00,1.2023
2703.00,1.2019
2702.00,1.2017
2701.00,1.2016
2700.00,1.2015
2699.00,1.2014
2698.00,1.2014
2697.00,1.2013
2696.00,1.2013
2695.00,1.2015
2694.00,1.2018
2693.00,1.2021
2692.00,1.2020
2691.00,1.2016
2690.00,1.2012
2689.00,1.2012
2688.00,1.2015
2687.00,1.2018
2686.00,1.2018
2685.00,1.2013
2684.00,1.2008
2683.00,1.2006
2682.00,1.2008
2681.00,1.2013
2680.00,1.2018
2679.00,1.2021
2678.00,1.2020
2677.00,1.2018
2676.00,1.2015
2675.00,1.2012
2674.00,1.2009
2673.00,1.2007
2672.00,1.2006
2671.00,1.2006
2670.00,1.2005
2669.00,1.2003
2668.00,1.1999
2667.00,1.1995
2666.00,1.1992
2665.00,1.1989
2664.00,1.1986
2663.00,1.1981
2662.00,1.1977
2661.00,1.1973
2660.00,1.1969
2659.00,1.1964
2658.00,1.1961
2657.00,1.1960
2656.00,1.1959
2655.00,1.1957
2654.00,1.1951
2653.00,1.1945
2652.00,1.1940
2651.00,1.1936
2650.00,1.1934
2649.00,1.1933
2648.00,1.1932
2647.00,1.1931
2646.00,1.1930
2645.00,1.1927
2644.00,1.1921
2643.00,1.1914
2642.00,1.1905
2641.00,1.1898
2640.00,1.1893
2639.00,1.1891
2638.00,1.1890
2637.00,1.1890
2636.00,1.1890
2635.00,1.1888
2634.00,1.1885
2633.00,1.1881
2632.00,1.1875
2631.00,1.1871
2630.00,1.1868
2629.00,1.1868
2628.00,1.1867
2627.00,1.1863
2626.00,1.1860
2625.00,1.1858
2624.00,1.1859
2623.00,1.1860
2622.00,1.1859
2621.00,1.1857
2620.00,1.1852
2619.00,1.1846
2618.00,1.1840
2617.00,1.1836
2616.00,1.1832
2615.00,1.1831
2614.00,1.1829
2613.00,1.1827
2612.00,1.1825
2611.00,1.1824
2610.00,1.1822
2609.00,1.1820
2608.00,1.1818
2607.00,1.1814
2606.00,1.1809
2605.00,1.1805
2604.00,1.1802
2603.00,1.1800
2602.00,1.1798
2601.00,1.1796
2600.00,1.1792
2599.00,1.1789
2598.00,1.1786
2597.00,1.1785
2596.00,1.1784
2595.00,1.1782
2594.00,1.1779
2593.00,1.1774
2592.00,1.1770
2591.00,1.1767
2590.00,1.1766
2589.00,1.1765
2588.00,1.1765
2587.00,1.1764
2586.00,1.1760
2585.00,1.1754
2584.00,1.1746
2583.00,1.1738
2582.00,1.1733
2581.00,1.1730
2580.00,1.1730
2579.00,1.1729
2578.00,1.1728
2577.00,1.1724
2576.00,1.1718
2575.00,1.1711
2574.00,1.1705
2573.00,1.1701
2572.00,1.1699
2571.00,1.1698
2570.00,1.1697
2569.00,1.1695
2568.00,1.1693
2567.00,1.1690
2566.00,1.1686
2565.00,1.1683
2564.00,1.1680
2563.00,1.1677
2562.00,1.1675
2561.00,1.1673
2560.00,1.1671
2559.00,1.1668
2558.00,1.1663
2557.00,1.1659
2556.00,1.1655
2555.00,1.1655
2554.00,1.1655
2553.00,1.1654
2552.00,1.1650
2551.00,1.1645
2550.00,1.1640
2549.00,1.1636
2548.00,1.1634
2547.00,1.1634
2546.00,1.1635
2545.00,1.1635
2544.00,1.1633
2543.00,1.1630
2542.00,1.1626
2541.00,1.1622
2540.00,1.1619
2539.00,1.1616
2538.00,1.1614
2537.00,1.1615
2536.00,1.1616
2535.00,1.1615
2534.00,1.1613
2533.00,1.1609
2532.00,1.1606
2531.00,1.1604
2530.00,1.1602
2529.00,1.1598
2528.00,1.1593
2527.00,1.1588
2526.00,1.1586
2525.00,1.1586
2524.00,1.1585
2523.00,1.1584
2522.00,1.1580
2521.00,1.1576
2520.00,1.1572
2519.00,1.1570
2518.00,1.1568
2517.00,1.1567
2516.00,1.1564
2515.00,1.1561
2514.00,1.1558
2513.00,1.1557
2512.00,1.1557
2511.00,1.1556
2510.00,1.1557
2509.00,1.1559
2508.00,1.1562
2507.00,1.1563
2506.00,1.1562
2505.00,1.1559
2504.00,1.1556
2503.00,1.1553
2502.00,1.1553
2501.00,1.1553
2500.00,1.1551
2499.00,1.1547
2498.00,1.1543
2497.00,1.1541
2496.00,1.1541
2495.00,1.1542
2494.00,1.1541
2493.00,1.1540
2492.00,1.1539
2491.00,1.1537
2490.00,1.1534
2489.00,1.1532
2488.00,1.1529
2487.00,1.1525
2486.00,1.1522
2485.00,1.1521
2484.00,1.1520
2483.00,1.1519
2482.00,1.1518
2481.00,1.1518
2480.00,1.1517
2479.00,1.1516
2478.00,1.1515
2477.00,1.1514
2476.00,1.1513
2475.00,1.1511
2474.00,1.1506
2473.00,1.1501
2472.00,1.1498
2471.00,1.1496
2470.00,1.1495
2469.00,1.1493
2468.00,1.1491
2467.00,1.1490
2466.00,1.1489
2465.00,1.1488
2464.00,1.1488
2463.00,1.1488
2462.00,1.1489
2461.00,1.1490
2460.00,1.1490
2459.00,1.1489
2458.00,1.1487
2457.00,1.1486
2456.00,1.1484
2455.00,1.1484
2454.00,1.1485
2453.00,1.1489
2452.00,1.1493
2451.00,1.1493
2450.00,1.1490
2449.00,1.1485
2448.00,1.1482
2447.00,1.1480
2446.00,1.1478
2445.00,1.1477
2444.00,1.1476
2443.00,1.1475
2442.00,1.1474
2441.00,1.1473
2440.00,1.1471
2439.00,1.1469
2438.00,1.1468
2437.00,1.1469
2436.00,1.1471
2435.00,1.1473
2434.00,1.1475
2433.00,1.1475
2432.00,1.1476
2431.00,1.1475
2430.00,1.1472
2429.00,1.1468
2428.00,1.1463
2427.00,1.1459
2426.00,1.1457
2425.00,1.1457
2424.00,1.1458
2423.00,1.1458
2422.00,1.1457
2421.00,1.1456
2420.00,1.1456
2419.00,1.1456
2418.00,1.1456
2417.00,1.1456
2416.00,1.1455
2415.00,1.1454
2414.00,1.1453
2413.00,1.1454
2412.00,1.1454
2411.00,1.1455
2410.00,1.1456
2409.00,1.1457
2408.00,1.1456
2407.00,1.1454
2406.00,1.1450
2405.00,1.1448
2404.00,1.1448
2403.00,1.1448
2402.00,1.1449
2401.00,1.1449
2400.00,1.1450
2399.00,1.1450
2398.00,1.1447
2397.00,1.1444
2396.00,1.1443
2395.00,1.1443
2394.00,1.1444
2393.00,1.1444
2392.00,1.1444
2391.00,1.1444
2390.00,1.1444
2389.00,1.1443
2388.00,1.1443
2387.00,1.1442
2386.00,1.1440
2385.00,1.1437
2384.00,1.1434
2383.00,1.1431
2382.00,1.1427
2381.00,1.1423
2380.00,1.1419
2379.00,1.1415
2378.00,1.1414
2377.00,1.1415
2376.00,1.1419
2375.00,1.1423
2374.00,1.1425
2373.00,1.1426
2372.00,1.1428
2371.00,1.1428
2370.00,1.1428
2369.00,1.1426
2368.00,1.1423
2367.00,1.1420
2366.00,1.1416
2365.00,1.1412
2364.00,1.1407
2363.00,1.1406
2362.00,1.1409
2361.00,1.1413
2360.00,1.1417
2359.00,1.1419
2358.00,1.1422
2357.00,1.1425
2356.00,1.1430
2355.00,1.1437
2354.00,1.1444
2353.00,1.1449
2352.00,1.1453
2351.00,1.1462
2350.00,1.1479
2349.00,1.1491
2348.00,1.1480
2347.00,1.1443
2346.00,1.1394
2345.00,1.1360
2344.00,1.1353
2343.00,1.1369
2342.00,1.1387
2341.00,1.1398
2340.00,1.1402
2339.00,1.1405
2338.00,1.1408
2337.00,1.1412
2336.00,1.1415
2335.00,1.1415
2334.00,1.1415
2333.00,1.1414
2332.00,1.1414
2331.00,1.1415
2330.00,1.1419
2329.00,1.1424
2328.00,1.1426
2327.00,1.1425
2326.00,1.1420
2325.00,1.1415
2324.00,1.1409
2323.00,1.1404
2322.00,1.1400
2321.00,1.1401
2320.00,1.1405
2319.00,1.1409
2318.00,1.1414
2317.00,1.1417
2316.00,1.1416
2315.00,1.1411
2314.00,1.1404
2313.00,1.1397
2312.00,1.1392
2311.00,1.1388
2310.00,1.1384
2309.00,1.1381
2308.00,1.1380
2307.00,1.1377
2306.00,1.1372
2305.00,1.1365
2304.00,1.1358
2303.00,1.1354
2302.00,1.1353
2301.00,1.1353
2300.00,1.1354
2299.00,1.1354
2298.00,1.1355
2297.00,1.1355
2296.00,1.1354
2295.00,1.1352
2294.00,1.1351
2293.00,1.1350
2292.00,1.1349
2291.00,1.1349
2290.00,1.1350
2289.00,1.1350
2288.00,1.1348
2287.00,1.1343
2286.00,1.1340
2285.00,1.1340
2284.00,1.1340
2283.00,1.1338
2282.00,1.1333
2281.00,1.1328
2280.00,1.1327
2279.00,1.1328
2278.00,1.1328
2277.00,1.1325
2276.00,1.1320
2275.00,1.1314
2274.00,1.1310
2273.00,1.1310
2272.00,1.1310
2271.00,1.1309
2270.00,1.1309
2269.00,1.1309
2268.00,1.1309
2267.00,1.1309
2266.00,1.1308
2265.00,1.1306
2264.00,1.1305
2263.00,1.1303
2262.00,1.1301
2261.00,1.1301
2260.00,1.1302
2259.00,1.1304
2258.00,1.1305
2257.00,1.1305
2256.00,1.1302
2255.00,1.1298
2254.00,1.1295
2253.00,1.1294
2252.00,1.1294
2251.00,1.1295
2250.00,1.1295
2249.00,1.1294
2248.00,1.1291
2247.00,1.1287
2246.00,1.1282
2245.00,1.1279
2244.00,1.1279
2243.00,1.1280
2242.00,1.1282
2241.00,1.1284
2240.00,1.1284
2239.00,1.1284
2238.00,1.1282
2237.00,1.1280
2236.00,1.1279
2235.00,1.1280
2234.00,1.1281
2233.00,1.1280
2232.00,1.1279
2231.00,1.1278
2230.00,1.1278
2229.00,1.1275
2228.00,1.1269
2227.00,1.1264
2226.00,1.1261
2225.00,1.1261
2224.00,1.1261
2223.00,1.1261
2222.00,1.1259
2221.00,1.1257
2220.00,1.1256
2219.00,1.1255
2218.00,1.1254
2217.00,1.1252
2216.00,1.1251
2215.00,1.1249
2214.00,1.1249
2213.00,1.1250
2212.00,1.1249
2211.00,1.1248
2210.00,1.1244
2209.00,1.1241
2208.00,1.1239
2207.00,1.1239
2206.00,1.1241
2205.00,1.1243
2204.00,1.1245
2203.00,1.1245
2202.00,1.1245
2201.00,1.1245
2200.00,1.1246
2199.00,1.1248
2198.00,1.1248
2197.00,1.1247
2196.00,1.1246
2195.00,1.1246
2194.00,1.1245
2193.00,1.1243
2192.00,1.1241
2191.00,1.1241
2190.00,1.1244
2189.00,1.1248
2188.00,1.1250
2187.00,1.1248
2186.00,1.1245
2185.00,1.1243
2184.00,1.1241
2183.00,1.1240
2182.00,1.1239
2181.00,1.1238
2180.00,1.1237
2179.00,1.1236
2178.00,1.1235
2177.00,1.1236
2176.00,1.1237
2175.00,1.1237
2174.00,1.1234
2173.00,1.1231
2172.00,1.1227
2171.00,1.1223
2170.00,1.1222
2169.00,1.1221
2168.00,1.1222
2167.00,1.1222
2166.00,1.1221
2165.00,1.1219
2164.00,1.1216
2163.00,1.1213
2162.00,1.1211
2161.00,1.1208
2160.00,1.1207
2159.00,1.1207
2158.00,1.1208
2157.00,1.1208
2156.00,1.1208
2155.00,1.1208
2154.00,1.1207
2153.00,1.1207
2152.00,1.1207
2151.00,1.1207
2150.00,1.1208
2149.00,1.1208
2148.00,1.1207
2147.00,1.1206
2146.00,1.1206
2145.00,1.1206
2144.00,1.1206
2143.00,1.1206
2142.00,1.1206
2141.00,1.1205
2140.00,1.1204
2139.00,1.1202
2138.00,1.1199
2137.00,1.1196
2136.00,1.1194
2135.00,1.1195
2134.00,1.1200
2133.00,1.1205
2132.00,1.1207
2131.00,1.1204
2130.00,1.1200
2129.00,1.1197
2128.00,1.1195
2127.00,1.1195
2126.00,1.1196
2125.00,1.1195
2124.00,1.1194
2123.00,1.1192
2122.00,1.1191
2121.00,1.1189
2120.00,1.1185
2119.00,1.1182
2118.00,1.1180
2117.00,1.1180
2116.00,1.1180
2115.00,1.1180
2114.00,1.1180
2113.00,1.1179
2112.00,1.1177
2111.00,1.1175
2110.00,1.1173
2109.00,1.1171
2108.00,1.1170
2107.00,1.1168
2106.00,1.1167
2105.00,1.1165
2104.00,1.1161
2103.00,1.1157
2102.00,1.1156
2101.00,1.1158
2100.00,1.1159
2099.00,1.1158
2098.00,1.1156
2097.00,1.1154
2096.00,1.1156
2095.00,1.1157
2094.00,1.1159
2093.00,1.1160
2092.00,1.1161
2091.00,1.1161
2090.00,1.1159
2089.00,1.1158
2088.00,1.1156
2087.00,1.1156
2086.00,1.1156
2085.00,1.1156
2084.00,1.1156
2083.00,1.1156
2082.00,1.1157
2081.00,1.1158
2080.00,1.1160
2079.00,1.1162
2078.00,1.1164
2077.00,1.1166
2076.00,1.1166
2075.00,1.1164
2074.00,1.1161
2073.00,1.1158
2072.00,1.1156
2071.00,1.1154
2070.00,1.1152
2069.00,1.1151
2068.00,1.1150
2067.00,1.1148
2066.00,1.1146
2065.00,1.1142
2064.00,1.1140
2063.00,1.1139
2062.00,1.1140
2061.00,1.1142
2060.00,1.1142
2059.00,1.1142
2058.00,1.1141
2057.00,1.1140
2056.00,1.1140
2055.00,1.1138
2054.00,1.1138
2053.00,1.1138
2052.00,1.1139
2051.00,1.1140
2050.00,1.1141
2049.00,1.1143
2048.00,1.1145
2047.00,1.1145
2046.00,1.1144
2045.00,1.1142
2044.00,1.1140
2043.00,1.1138
2042.00,1.1138
2041.00,1.1138
2040.00,1.1139
2039.00,1.1138
2038.00,1.1135
2037.00,1.1132
2036.00,1.1130
2035.00,1.1130
2034.00,1.1133
2033.00,1.1138
2032.00,1.1142
2031.00,1.1142
2030.00,1.1139
2029.00,1.1136
2028.00,1.1133
2027.00,1.1131
2026.00,1.1129
2025.00,1.1128
2024.00,1.1129
2023.00,1.1132
2022.00,1.1135
2021.00,1.1137
2020.00,1.1135
2019.00,1.1130
2018.00,1.1126
2017.00,1.1124
2016.00,1.1122
2015.00,1.1121
2014.00,1.1117
2013.00,1.1112
2012.00,1.1107
2011.00,1.1103
2010.00,1.1100
2009.00,1.1099
2008.00,1.1098
2007.00,1.1098
2006.00,1.1097
2005.00,1.1096
2004.00,1.1093
2003.00,1.1092
2002.00,1.1091
2001.00,1.1092
2000.00,1.1093
1999.00,1.1093
1998.00,1.1091
1997.00,1.1089
1996.00,1.1087
1995.00,1.1083
1994.00,1.1079
1993.00,1.1074
1992.00,1.1071
1991.00,1.1070
1990.00,1.1072
1989.00,1.1074
1988.00,1.1074
1987.00,1.1073
1986.00,1.1072
1985.00,1.1072
1984.00,1.1074
1983.00,1.1076
1982.00,1.1076
1981.00,1.1075
1980.00,1.1074
1979.00,1.1075
1978.00,1.1077
1977.00,1.1078
1976.00,1.1077
1975.00,1.1076
1974.00,1.1075
1973.00,1.1074
1972.00,1.1073
1971.00,1.1073
1970.00,1.1071
1969.00,1.1067
1968.00,1.1061
1967.00,1.1058
1966.00,1.1060
1965.00,1.1065
1964.00,1.1069
1963.00,1.1070
1962.00,1.1069
1961.00,1.1068
1960.00,1.1066
1959.00,1.1064
1958.00,1.1063
1957.00,1.1063
1956.00,1.1062
1955.00,1.1059
1954.00,1.1056
1953.00,1.1052
1952.00,1.1051
1951.00,1.1051
1950.00,1.1052
1949.00,1.1054
1948.00,1.1056
1947.00,1.1055
1946.00,1.1052
1945.00,1.1047
1944.00,1.1042
1943.00,1.1040
1942.00,1.1042
1941.00,1.1047
1940.00,1.1052
1939.00,1.1056
1938.00,1.1057
1937.00,1.1056
1936.00,1.1056
1935.00,1.1056
1934.00,1.1056
1933.00,1.1054
1932.00,1.1050
1931.00,1.1045
1930.00,1.1043
1929.00,1.1045
1928.00,1.1048
1927.00,1.1049
1926.00,1.1047
1925.00,1.1043
1924.00,1.1040
1923.00,1.1039
1922.00,1.1042
1921.00,1.1048
1920.00,1.1052
1919.00,1.1051
1918.00,1.1047
1917.00,1.1044
1916.00,1.1045
1915.00,1.1050
1914.00,1.1052
1913.00,1.1051
1912.00,1.1048
1911.00,1.1042
1910.00,1.1038
1909.00,1.1037
1908.00,1.1040
1907.00,1.1043
1906.00,1.1044
1905.00,1.1042
1904.00,1.1038
1903.00,1.1035
1902.00,1.1033
1901.00,1.1033
1900.00,1.1032
1899.00,1.1030
1898.00,1.1027
1897.00,1.1026
1896.00,1.1026
1895.00,1.1027
1894.00,1.1027
1893.00,1.1027
1892.00,1.1025
1891.00,1.1021
1890.00,1.1017
1889.00,1.1016
1888.00,1.1019
1887.00,1.1022
1886.00,1.1025
1885.00,1.1026
1884.00,1.1027
1883.00,1.1027
1882.00,1.1026
1881.00,1.1024
1880.00,1.1021
1879.00,1.1020
1878.00,1.1019
1877.00,1.1017
1876.00,1.1016
1875.00,1.1012
1874.00,1.1007
1873.00,1.1001
1872.00,1.0997
1871.00,1.0994
1870.00,1.0992
1869.00,1.0991
1868.00,1.0992
1867.00,1.0995
1866.00,1.0999
1865.00,1.1001
1864.00,1.1000
1863.00,1.0995
1862.00,1.0987
1861.00,1.0981
1860.00,1.0978
1859.00,1.0977
1858.00,1.0977
1857.00,1.0977
1856.00,1.0977
1855.00,1.0976
1854.00,1.0976
1853.00,1.0976
1852.00,1.0974
1851.00,1.0970
1850.00,1.0964
1849.00,1.0958
1848.00,1.0954
1847.00,1.0955
1846.00,1.0959
1845.00,1.0962
1844.00,1.0962
1843.00,1.0961
1842.00,1.0961
1841.00,1.0963
1840.00,1.0963
1839.00,1.0960
1838.00,1.0957
1837.00,1.0957
1836.00,1.0960
1835.00,1.0964
1834.00,1.0966
1833.00,1.0967
1832.00,1.0968
1831.00,1.0968
1830.00,1.0965
1829.00,1.0962
1828.00,1.0961
1827.00,1.0961
1826.00,1.0960
1825.00,1.0956
1824.00,1.0953
1823.00,1.0953
1822.00,1.0955
1821.00,1.0955
1820.00,1.0952
1819.00,1.0947
1818.00,1.0943
1817.00,1.0943
1816.00,1.0945
1815.00,1.0946
1814.00,1.0946
1813.00,1.0943
1812.00,1.0941
1811.00,1.0941
1810.00,1.0942
1809.00,1.0944
1808.00,1.0945
1807.00,1.0944
1806.00,1.0943
1805.00,1.0940
1804.00,1.0936
1803.00,1.0931
1802.00,1.0928
1801.00,1.0930
1800.00,1.0937
1799.00,1.0941
1798.00,1.0942
1797.00,1.0942
1796.00,1.0943
1795.00,1.0945
1794.00,1.0947
1793.00,1.0947
1792.00,1.0945
1791.00,1.0944
1790.00,1.0947
1789.00,1.0952
1788.00,1.0957
1787.00,1.0959
1786.00,1.0958
1785.00,1.0958
1784.00,1.0959
1783.00,1.0963
1782.00,1.0968
1781.00,1.0973
1780.00,1.0978
1779.00,1.0983
1778.00,1.0987
1777.00,1.0991
1776.00,1.0996
1775.00,1.1003
1774.00,1.1014
1773.00,1.1026
1772.00,1.1035
1771.00,1.1040
1770.00,1.1043
1769.00,1.1048
1768.00,1.1057
1767.00,1.1070
1766.00,1.1086
1765.00,1.1103
1764.00,1.1121
1763.00,1.1144
1762.00,1.1172
1761.00,1.1209
1760.00,1.1256
1759.00,1.1311
1758.00,1.1374
1757.00,1.1447
1756.00,1.1527
1755.00,1.1610
1754.00,1.1690
1753.00,1.1768
1752.00,1.1845
1751.00,1.1921
1750.00,1.1992
1749.00,1.2052
1748.00,1.2091
1747.00,1.2105
1746.00,1.2096
1745.00,1.2069
1744.00,1.2031
1743.00,1.1986
1742.00,1.1939
1741.00,1.1887
1740.00,1.1825
1739.00,1.1759
1738.00,1.1701
1737.00,1.1654
1736.00,1.1610
1735.00,1.1557
1734.00,1.1496
1733.00,1.1442
1732.00,1.1404
1731.00,1.1376
1730.00,1.1348
1729.00,1.1322
1728.00,1.1300
1727.00,1.1282
1726.00,1.1267
1725.00,1.1252
1724.00,1.1239
1723.00,1.1226
1722.00,1.1217
1721.00,1.1210
1720.00,1.1204
1719.00,1.1196
1718.00,1.1186
1717.00,1.1183
1716.00,1.1189
1715.00,1.1195
1714.00,1.1198
1713.00,1.1199
1712.00,1.1199
1711.00,1.1197
1710.00,1.1195
1709.00,1.1196
1708.00,1.1199
1707.00,1.1202
1706.00,1.1201
1705.00,1.1197
1704.00,1.1193
1703.00,1.1191
1702.00,1.1192
1701.00,1.1190
1700.00,1.1180
1699.00,1.1169
1698.00,1.1166
1697.00,1.1166
1696.00,1.1161
1695.00,1.1150
1694.00,1.1143
1693.00,1.1142
1692.00,1.1139
1691.00,1.1128
1690.00,1.1115
1689.00,1.1107
1688.00,1.1106
1687.00,1.1111
1686.00,1.1118
1685.00,1.1123
1684.00,1.1123
1683.00,1.1122
1682.00,1.1125
1681.00,1.1127
1680.00,1.1123
1679.00,1.1119
1678.00,1.1122
1677.00,1.1131
1676.00,1.1141
1675.00,1.1148
1674.00,1.1153
1673.00,1.1160
1672.00,1.1168
1671.00,1.1174
1670.00,1.1176
1669.00,1.1177
1668.00,1.1178
1667.00,1.1181
1666.00,1.1186
1665.00,1.1194
1664.00,1.1201
1663.00,1.1206
1662.00,1.1209
1661.00,1.1212
1660.00,1.1215
1659.00,1.1216
1658.00,1.1214
1657.00,1.1212
1656.00,1.1213
1655.00,1.1220
1654.00,1.1233
1653.00,1.1241
1652.00,1.1243
1651.00,1.1244
1650.00,1.1247
1649.00,1.1246
1648.00,1.1240
1647.00,1.1233
1646.00,1.1229
1645.00,1.1229
1644.00,1.1231
1643.00,1.1232
1642.00,1.1230
1641.00,1.1228
1640.00,1.1226
1639.00,1.1227
1638.00,1.1230
1637.00,1.1237
1636.00,1.1245
1635.00,1.1251
1634.00,1.1257
1633.00,1.1265
1632.00,1.1272
1631.00,1.1278
1630.00,1.1283
1629.00,1.1293
1628.00,1.1306
1627.00,1.1316
1626.00,1.1327
1625.00,1.1340
1624.00,1.1355
1623.00,1.1370
1622.00,1.1385
1621.00,1.1401
1620.00,1.1419
1619.00,1.1439
1618.00,1.1465
1617.00,1.1496
1616.00,1.1525
1615.00,1.1548
1614.00,1.1569
1613.00,1.1591
1612.00,1.1615
1611.00,1.1639
1610.00,1.1665
1609.00,1.1692
1608.00,1.1719
1607.00,1.1744
1606.00,1.1767
1605.00,1.1789
1604.00,1.1809
1603.00,1.1828
1602.00,1.1849
1601.00,1.1874
1600.00,1.1906
1599.00,1.1943
1598.00,1.1986
1597.00,1.2039
1596.00,1.2103
1595.00,1.2177
1594.00,1.2263
1593.00,1.2369
1592.00,1.2502
1591.00,1.2672
1590.00,1.2889
1589.00,1.3169
1588.00,1.3526
1587.00,1.3965
1586.00,1.4486
1585.00,1.5070
1584.00,1.5669
1583.00,1.6176
1582.00,1.6459
1581.00,1.6452
1580.00,1.6200
1579.00,1.5791
1578.00,1.5278
1577.00,1.4701
1576.00,1.4141
1575.00,1.3697
1574.00,1.3396
1573.00,1.3199
1572.00,1.3061
1571.00,1.2960
1570.00,1.2894
1569.00,1.2866
1568.00,1.2874
1567.00,1.2916
1566.00,1.2992
1565.00,1.3107
1564.00,1.3261
1563.00,1.3437
1562.00,1.3613
1561.00,1.3770
1560.00,1.3857
1559.00,1.3780
1558.00,1.3541
1557.00,1.3256
1556.00,1.2980
1555.00,1.2704
1554.00,1.2443
1553.00,1.2223
1552.00,1.2055
1551.00,1.1921
1550.00,1.1809
1549.00,1.1720
1548.00,1.1655
1547.00,1.1604
1546.00,1.1558
1545.00,1.1519
1544.00,1.1492
1543.00,1.1482
1542.00,1.1482
1541.00,1.1482
1540.00,1.1475
1539.00,1.1460
1538.00,1.1441
1537.00,1.1427
1536.00,1.1413
1535.00,1.1396
1534.00,1.1378
1533.00,1.1365
1532.00,1.1363
1531.00,1.1370
1530.00,1.1380
1529.00,1.1390
1528.00,1.1400
1527.00,1.1412
1526.00,1.1429
1525.00,1.1449
1524.00,1.1467
1523.00,1.1480
1522.00,1.1493
1521.00,1.1515
1520.00,1.1550
1519.00,1.1592
1518.00,1.1636
1517.00,1.1679
1516.00,1.1720
1515.00,1.1758
1514.00,1.1791
1513.00,1.1817
1512.00,1.1830
1511.00,1.1828
1510.00,1.1815
1509.00,1.1793
1508.00,1.1764
1507.00,1.1729
1506.00,1.1699
1505.00,1.1679
1504.00,1.1665
1503.00,1.1649
1502.00,1.1634
1501.00,1.1624
1500.00,1.1626
1499.00,1.1637
1498.00,1.1661
1497.00,1.1707
1496.00,1.1776
1495.00,1.1857
1494.00,1.1935
1493.00,1.2001
1492.00,1.2050
1491.00,1.2075
1490.00,1.2082
1489.00,1.2080
1488.00,1.2073
1487.00,1.2062
1486.00,1.2055
1485.00,1.2066
1484.00,1.2093
1483.00,1.2131
1482.00,1.2181
1481.00,1.2245
1480.00,1.2323
1479.00,1.2414
1478.00,1.2528
1477.00,1.2676
1476.00,1.2858
1475.00,1.3078
1474.00,1.3360
1473.00,1.3745
1472.00,1.4228
1471.00,1.4752
1470.00,1.5260
1469.00,1.5728
1468.00,1.6129
1467.00,1.6434
1466.00,1.6631
1465.00,1.6735
1464.00,1.6779
1463.00,1.6798
1462.00,1.6818
1461.00,1.6844
1460.00,1.6871
1459.00,1.6895
1458.00,1.6929
1457.00,1.6978
1456.00,1.7016
1455.00,1.7014
1454.00,1.6965
1453.00,1.6874
1452.00,1.6749
1451.00,1.6606
1450.00,1.6458
1449.00,1.6298
1448.00,1.6117
1447.00,1.5917
1446.00,1.5711
1445.00,1.5503
1444.00,1.5289
1443.00,1.5074
1442.00,1.4863
1441.00,1.4662
1440.00,1.4472
1439.00,1.4288
1438.00,1.4101
1437.00,1.3904
1436.00,1.3710
1435.00,1.3538
1434.00,1.3381
1433.00,1.3222
1432.00,1.3054
1431.00,1.2886
1430.00,1.2728
1429.00,1.2586
1428.00,1.2465
1427.00,1.2370
1426.00,1.2293
1425.00,1.2225
1424.00,1.2168
1423.00,1.2126
1422.00,1.2095
1421.00,1.2064
1420.00,1.2033
1419.00,1.2006
1418.00,1.1991
1417.00,1.1985
1416.00,1.1984
1415.00,1.1982
1414.00,1.1976
1413.00,1.1966
1412.00,1.1961
1411.00,1.1965
1410.00,1.1973
1409.00,1.1976
1408.00,1.1968
1407.00,1.1948
1406.00,1.1915
1405.00,1.1871
1404.00,1.1827
1403.00,1.1790
1402.00,1.1759
1401.00,1.1727
1400.00,1.1690
1399.00,1.1653
1398.00,1.1626
1397.00,1.1612
1396.00,1.1608
1395.00,1.1613
1394.00,1.1621
1393.00,1.1632
1392.00,1.1648
1391.00,1.1673
1390.00,1.1711
1389.00,1.1766
1388.00,1.1849
1387.00,1.1966
1386.00,1.2110
1385.00,1.2266
1384.00,1.2431
1383.00,1.2609
1382.00,1.2806
1381.00,1.3021
1380.00,1.3246
1379.00,1.3459
1378.00,1.3618
1377.00,1.3687
1376.00,1.3651
1375.00,1.3525
1374.00,1.3345
1373.00,1.3153
1372.00,1.2979
1371.00,1.2835
1370.00,1.2724
1369.00,1.2650
1368.00,1.2614
1367.00,1.2601
1366.00,1.2584
1365.00,1.2541
1364.00,1.2465
1363.00,1.2366
1362.00,1.2261
1361.00,1.2166
1360.00,1.2087
1359.00,1.2025
1358.00,1.1978
1357.00,1.1943
1356.00,1.1920
1355.00,1.1908
1354.00,1.1902
1353.00,1.1897
1352.00,1.1893
1351.00,1.1889
1350.00,1.1889
1349.00,1.1891
1348.00,1.1895
1347.00,1.1899
1346.00,1.1899
1345.00,1.1896
1344.00,1.1891
1343.00,1.1884
1342.00,1.1872
1341.00,1.1851
1340.00,1.1824
1339.00,1.1798
1338.00,1.1776
1337.00,1.1753
1336.00,1.1727
1335.00,1.1697
1334.00,1.1665
1333.00,1.1636
1332.00,1.1611
1331.00,1.1592
1330.00,1.1581
1329.00,1.1576
1328.00,1.1576
1327.00,1.1580
1326.00,1.1585
1325.00,1.1592
1324.00,1.1605
1323.00,1.1623
1322.00,1.1645
1321.00,1.1665
1320.00,1.1679
1319.00,1.1691
1318.00,1.1701
1317.00,1.1713
1316.00,1.1726
1315.00,1.1739
1314.00,1.1750
1313.00,1.1758
1312.00,1.1766
1311.00,1.1775
1310.00,1.1783
1309.00,1.1789
1308.00,1.1792
1307.00,1.1792
1306.00,1.1793
1305.00,1.1793
1304.00,1.1794
1303.00,1.1796
1302.00,1.1797
1301.00,1.1794
1300.00,1.1786
1299.00,1.1775
1298.00,1.1763
1297.00,1.1749
1296.00,1.1732
1295.00,1.1715
1294.00,1.1698
1293.00,1.1682
1292.00,1.1668
1291.00,1.1657
1290.00,1.1647
1289.00,1.1636
1288.00,1.1622
1287.00,1.1606
1286.00,1.1589
1285.00,1.1573
1284.00,1.1559
1283.00,1.1546
1282.00,1.1534
1281.00,1.1522
1280.00,1.1512
1279.00,1.1507
1278.00,1.1506
1277.00,1.1507
1276.00,1.1505
1275.00,1.1502
1274.00,1.1499
1273.00,1.1499
1272.00,1.1502
1271.00,1.1506
1270.00,1.1511
1269.00,1.1518
1268.00,1.1525
1267.00,1.1528
1266.00,1.1523
1265.00,1.1512
1264.00,1.1500
1263.00,1.1492
1262.00,1.1488
1261.00,1.1487
1260.00,1.1491
1259.00,1.1497
1258.00,1.1503
1257.00,1.1511
1256.00,1.1523
1255.00,1.1537
1254.00,1.1544
1253.00,1.1544
1252.00,1.1541
1251.00,1.1541
1250.00,1.1544
1249.00,1.1546
1248.00,1.1548
1247.00,1.1553
1246.00,1.1563
1245.00,1.1573
1244.00,1.1584
1243.00,1.1595
1242.00,1.1601
1241.00,1.1598
1240.00,1.1584
1239.00,1.1568
1238.00,1.1557
1237.00,1.1553
1236.00,1.1551
1235.00,1.1548
1234.00,1.1540
1233.00,1.1530
1232.00,1.1523
1231.00,1.1518
1230.00,1.1513
1229.00,1.1503
1228.00,1.1488
1227.00,1.1470
1226.00,1.1452
1225.00,1.1437
1224.00,1.1427
1223.00,1.1423
1222.00,1.1421
1221.00,1.1415
1220.00,1.1407
1219.00,1.1403
1218.00,1.1408
1217.00,1.1419
1216.00,1.1434
1215.00,1.1448
1214.00,1.1459
1213.00,1.1467
1212.00,1.1474
1211.00,1.1482
1210.00,1.1491
1209.00,1.1505
1208.00,1.1527
1207.00,1.1558
1206.00,1.1593
1205.00,1.1627
1204.00,1.1657
1203.00,1.1689
1202.00,1.1723
1201.00,1.1756
1200.00,1.1782
1199.00,1.1797
1198.00,1.1802
1197.00,1.1797
1196.00,1.1787
1195.00,1.1776
1194.00,1.1769
1193.00,1.1765
1192.00,1.1760
1191.00,1.1746
1190.00,1.1721
1189.00,1.1689
1188.00,1.1653
1187.00,1.1618
1186.00,1.1583
1185.00,1.1551
1184.00,1.1525
1183.00,1.1508
1182.00,1.1501
1181.00,1.1507
1180.00,1.1523
1179.00,1.1548
1178.00,1.1576
1177.00,1.1601
1176.00,1.1619
1175.00,1.1634
1174.00,1.1649
1173.00,1.1668
1172.00,1.1689
1171.00,1.1710
1170.00,1.1725
1169.00,1.1730
1168.00,1.1726
1167.00,1.1718
1166.00,1.1710
1165.00,1.1704
1164.00,1.1700
1163.00,1.1693
1162.00,1.1679
1161.00,1.1657
1160.00,1.1630
1159.00,1.1603
1158.00,1.1579
1157.00,1.1558
1156.00,1.1539
1155.00,1.1520
1154.00,1.1497
1153.00,1.1470
1152.00,1.1439
1151.00,1.1410
1150.00,1.1387
1149.00,1.1372
1148.00,1.1360
1147.00,1.1351
1146.00,1.1341
1145.00,1.1330
1144.00,1.1319
1143.00,1.1305
1142.00,1.1290
1141.00,1.1277
1140.00,1.1270
1139.00,1.1270
1138.00,1.1277
1137.00,1.1289
1136.00,1.1303
1135.00,1.1315
1134.00,1.1319
1133.00,1.1312
1132.00,1.1295
1131.00,1.1269
1130.00,1.1240
1129.00,1.1210
1128.00,1.1184
1127.00,1.1167
1126.00,1.1157
1125.00,1.1154
1124.00,1.1153
1123.00,1.1149
1122.00,1.1141
1121.00,1.1129
1120.00,1.1122
1119.00,1.1125
1118.00,1.1137
1117.00,1.1156
1116.00,1.1177
1115.00,1.1196
1114.00,1.1209
1113.00,1.1210
1112.00,1.1200
1111.00,1.1183
1110.00,1.1161
1109.00,1.1137
1108.00,1.1114
1107.00,1.1099
1106.00,1.1092
1105.00,1.1091
1104.00,1.1094
1103.00,1.1102
1102.00,1.1114
1101.00,1.1126
1100.00,1.1133
1099.00,1.1132
1098.00,1.1125
1097.00,1.1116
1096.00,1.1110
1095.00,1.1106
1094.00,1.1098
1093.00,1.1085
1092.00,1.1069
1091.00,1.1057
1090.00,1.1050
1089.00,1.1045
1088.00,1.1040
1087.00,1.1037
1086.00,1.1038
1085.00,1.1043
1084.00,1.1052
1083.00,1.1063
1082.00,1.1076
1081.00,1.1088
1080.00,1.1101
1079.00,1.1117
1078.00,1.1133
1077.00,1.1141
1076.00,1.1139
1075.00,1.1129
1074.00,1.1111
1073.00,1.1088
1072.00,1.1062
1071.00,1.1037
1070.00,1.1014
1069.00,1.0989
1068.00,1.0964
1067.00,1.0943
1066.00,1.0926
1065.00,1.0909
1064.00,1.0896
1063.00,1.0891
1062.00,1.0894
1061.00,1.0898
1060.00,1.0895
1059.00,1.0882
1058.00,1.0865
1057.00,1.0848
1056.00,1.0834
1055.00,1.0825
1054.00,1.0822
1053.00,1.0824
1052.00,1.0826
1051.00,1.0828
1050.00,1.0830
1049.00,1.0832
1048.00,1.0834
1047.00,1.0837
1046.00,1.0837
1045.00,1.0836
1044.00,1.0834
1043.00,1.0833
1042.00,1.0835
1041.00,1.0836
1040.00,1.0836
1039.00,1.0833
1038.00,1.0827
1037.00,1.0821
1036.00,1.0820
1035.00,1.0827
1034.00,1.0840
1033.00,1.0858
1032.00,1.0880
1031.00,1.0905
1030.00,1.0932
1029.00,1.0958
1028.00,1.0977
1027.00,1.0982
1026.00,1.0968
1025.00,1.0940
1024.00,1.0910
1023.00,1.0886
1022.00,1.0868
1021.00,1.0853
1020.00,1.0839
1019.00,1.0828
1018.00,1.0819
1017.00,1.0806
1016.00,1.0786
1015.00,1.0767
1014.00,1.0757
1013.00,1.0763
1012.00,1.0781
1011.00,1.0806
1010.00,1.0828
1009.00,1.0834
1008.00,1.0820
1007.00,1.0792
1006.00,1.0762
1005.00,1.0737
1004.00,1.0718
1003.00,1.0708
1002.00,1.0704
1001.00,1.0707
1000.00,1.0712
999.00,1.0716
998.00,1.0717
997.00,1.0716
996.00,1.0717
995.00,1.0723
994.00,1.0731
993.00,1.0737
992.00,1.0738
991.00,1.0736
990.00,1.0734
989.00,1.0735
988.00,1.0742
987.00,1.0757
986.00,1.0779
985.00,1.0802
984.00,1.0827
983.00,1.0856
982.00,1.0892
981.00,1.0934
980.00,1.0977
979.00,1.1021
978.00,1.1063
977.00,1.1104
976.00,1.1143
975.00,1.1184
974.00,1.1227
973.00,1.1269
972.00,1.1305
971.00,1.1331
970.00,1.1347
969.00,1.1358
968.00,1.1370
967.00,1.1383
966.00,1.1389
965.00,1.1381
964.00,1.1359
963.00,1.1333
962.00,1.1309
961.00,1.1286
960.00,1.1257
959.00,1.1221
958.00,1.1179
957.00,1.1133
956.00,1.1082
955.00,1.1025
954.00,1.0964
953.00,1.0900
952.00,1.0837
951.00,1.0778
950.00,1.0725
949.00,1.0677
948.00,1.0635
947.00,1.0603
946.00,1.0582
945.00,1.0572
944.00,1.0571
943.00,1.0576
942.00,1.0586
941.00,1.0596
940.00,1.0602
939.00,1.0603
938.00,1.0603
937.00,1.0604
936.00,1.0604
935.00,1.0604
934.00,1.0602
933.00,1.0600
932.00,1.0598
931.00,1.0594
930.00,1.0589
929.00,1.0582
928.00,1.0577
927.00,1.0578
926.00,1.0587
925.00,1.0602
924.00,1.0619
923.00,1.0637
922.00,1.0656
921.00,1.0671
920.00,1.0679
919.00,1.0673
918.00,1.0655
917.00,1.0628
916.00,1.0601
915.00,1.0580
914.00,1.0565
913.00,1.0553
912.00,1.0540
911.00,1.0528
910.00,1.0518
909.00,1.0506
908.00,1.0492
907.00,1.0477
906.00,1.0465
905.00,1.0462
904.00,1.0466
903.00,1.0473
902.00,1.0477
901.00,1.0474
900.00,1.0466
899.00,1.0457
898.00,1.0450
897.00,1.0447
896.00,1.0446
895.00,1.0449
894.00,1.0456
893.00,1.0463
892.00,1.0470
891.00,1.0474
890.00,1.0477
889.00,1.0476
888.00,1.0468
887.00,1.0455
886.00,1.0437
885.00,1.0417
884.00,1.0396
883.00,1.0381
882.00,1.0377
881.00,1.0383
880.00,1.0394
879.00,1.0402
878.00,1.0404
877.00,1.0406
876.00,1.0413
875.00,1.0421
874.00,1.0426
873.00,1.0426
872.00,1.0426
871.00,1.0429
870.00,1.0436
869.00,1.0439
868.00,1.0438
867.00,1.0436
866.00,1.0437
865.00,1.0440
864.00,1.0448
863.00,1.0459
862.00,1.0471
861.00,1.0476
860.00,1.0467
859.00,1.0441
858.00,1.0406
857.00,1.0374
856.00,1.0350
855.00,1.0331
854.00,1.0313
853.00,1.0297
852.00,1.0289
851.00,1.0289
850.00,1.0293
849.00,1.0297
848.00,1.0303
847.00,1.0315
846.00,1.0328
845.00,1.0335
844.00,1.0331
843.00,1.0324
842.00,1.0325
841.00,1.0341
840.00,1.0376
839.00,1.0425
838.00,1.0479
837.00,1.0527
836.00,1.0557
835.00,1.0558
834.00,1.0530
833.00,1.0480
832.00,1.0425
831.00,1.0379
830.00,1.0347
829.00,1.0326
828.00,1.0314
827.00,1.0311
826.00,1.0317
825.00,1.0326
824.00,1.0333
823.00,1.0341
822.00,1.0352
821.00,1.0368
820.00,1.0383
819.00,1.0393
818.00,1.0395
817.00,1.0389
816.00,1.0376
815.00,1.0362
814.00,1.0349
813.00,1.0339
812.00,1.0330
811.00,1.0321
810.00,1.0308
809.00,1.0293
808.00,1.0281
807.00,1.0270
806.00,1.0256
805.00,1.0236
804.00,1.0216
803.00,1.0204
802.00,1.0197
801.00,1.0194
800.00,1.0194
799.00,1.0196
798.00,1.0200
797.00,1.0198
796.00,1.0192
795.00,1.0188
794.00,1.0190
793.00,1.0197
792.00,1.0209
791.00,1.0227
790.00,1.0249
789.00,1.0268
788.00,1.0280
787.00,1.0286
786.00,1.0291
785.00,1.0299
784.00,1.0312
783.00,1.0334
782.00,1.0360
781.00,1.0388
780.00,1.0413
779.00,1.0428
778.00,1.0431
777.00,1.0425
776.00,1.0418
775.00,1.0414
774.00,1.0416
773.00,1.0420
772.00,1.0427
771.00,1.0439
770.00,1.0449
769.00,1.0452
768.00,1.0448
767.00,1.0447
766.00,1.0452
765.00,1.0461
764.00,1.0472
763.00,1.0489
762.00,1.0510
761.00,1.0528
760.00,1.0537
759.00,1.0540
758.00,1.0543
757.00,1.0549
756.00,1.0558
755.00,1.0568
754.00,1.0576
753.00,1.0572
752.00,1.0558
751.00,1.0541
750.00,1.0529
749.00,1.0521
748.00,1.0515
747.00,1.0513
746.00,1.0520
745.00,1.0532
744.00,1.0540
743.00,1.0540
742.00,1.0534
741.00,1.0527
740.00,1.0525
739.00,1.0533
738.00,1.0551
737.00,1.0573
736.00,1.0592
735.00,1.0605
734.00,1.0616
733.00,1.0628
732.00,1.0645
731.00,1.0673
730.00,1.0716
729.00,1.0772
728.00,1.0835
727.00,1.0902
726.00,1.0975
725.00,1.1058
724.00,1.1147
723.00,1.1232
722.00,1.1293
721.00,1.1302
720.00,1.1243
719.00,1.1128
718.00,1.0991
717.00,1.0858
716.00,1.0741
715.00,1.0643
714.00,1.0563
713.00,1.0499
712.00,1.0448
711.00,1.0404
710.00,1.0363
709.00,1.0321
708.00,1.0277
707.00,1.0239
706.00,1.0213
705.00,1.0200
704.00,1.0192
703.00,1.0186
702.00,1.0179
701.00,1.0171
700.00,1.0158
699.00,1.0139
698.00,1.0110
697.00,1.0077
696.00,1.0047
695.00,1.0030
694.00,1.0034
693.00,1.0055
692.00,1.0082
691.00,1.0102
690.00,1.0110
689.00,1.0106
688.00,1.0093
687.00,1.0067
686.00,1.0030
685.00,0.9987
684.00,0.9949
683.00,0.9922
682.00,0.9909
681.00,0.9907
680.00,0.9907
679.00,0.9905
678.00,0.9896
677.00,0.9882
676.00,0.9869
675.00,0.9862
674.00,0.9861
673.00,0.9864
672.00,0.9875
671.00,0.9896
670.00,0.9926
669.00,0.9959
668.00,0.9989
667.00,1.0009
666.00,0.9999
665.00,0.9962
664.00,0.9922
663.00,0.9903
662.00,0.9910
661.00,0.9931
660.00,0.9952
659.00,0.9966
658.00,0.9976
657.00,0.9982
656.00,0.9984
655.00,0.9980
654.00,0.9976
653.00,0.9974
652.00,0.9980
651.00,0.9995
650.00,1.0018
649.00,1.0043
648.00,1.0062
647.00,1.0071
646.00,1.0069
645.00,1.0061
644.00,1.0058
643.00,1.0062
642.00,1.0073
641.00,1.0089
640.00,1.0113
639.00,1.0148
638.00,1.0189
637.00,1.0223
636.00,1.0238
635.00,1.0234
634.00,1.0220
633.00,1.0206
632.00,1.0198
631.00,1.0202
630.00,1.0216
629.00,1.0233
628.00,1.0244
627.00,1.0253
626.00,1.0265
625.00,1.0283
624.00,1.0302
623.00,1.0317
622.00,1.0331
621.00,1.0346
620.00,1.0362
619.00,1.0375
618.00,1.0382
617.00,1.0384
616.00,1.0379
615.00,1.0371
614.00,1.0360
613.00,1.0348
612.00,1.0335
611.00,1.0325
610.00,1.0319
609.00,1.0307
608.00,1.0279
607.00,1.0239
606.00,1.0202
605.00,1.0181
604.00,1.0171
603.00,1.0162
602.00,1.0155
601.00,1.0158
600.00,1.0174
599.00,1.0193
598.00,1.0205
597.00,1.0210
596.00,1.0216
595.00,1.0227
594.00,1.0240
593.00,1.0249
592.00,1.0254
591.00,1.0262
590.00,1.0283
589.00,1.0321
588.00,1.0366
587.00,1.0407
586.00,1.0438
585.00,1.0466
584.00,1.0494
583.00,1.0519
582.00,1.0539
581.00,1.0555
580.00,1.0573
579.00,1.0593
578.00,1.0614
577.00,1.0631
576.00,1.0640
575.00,1.0642
574.00,1.0643
573.00,1.0653
572.00,1.0674
571.00,1.0693
570.00,1.0696
569.00,1.0687
568.00,1.0682
567.00,1.0689
566.00,1.0698
565.00,1.0694
564.00,1.0685
563.00,1.0690
562.00,1.0712
561.00,1.0728
560.00,1.0720
559.00,1.0691
558.00,1.0664
557.00,1.0652
556.00,1.0650
555.00,1.0650
554.00,1.0654
553.00,1.0667
552.00,1.0681
551.00,1.0685
550.00,1.0677
