Created as New Dataset,Sample 006 By Laboratory Date Friday, November 21 2025
cm-1,A
4000.00,1.1698
3999.00,1.1697
3998.00,1.1697
3997.00,1.1697
3996.00,1.1697
3995.00,1.1696
3994.00,1.1696
3993.00,1.1694
3992.00,1.1692
3991.00,1.1689
3990.00,1.1686
3989.00,1.1684
3988.00,1.1683
3987.00,1.1684
3986.00,1.1685
3985.00,1.1685
3984.00,1.1684
3983.00,1.1682
3982.00,1.1681
3981.00,1.1681
3980.00,1.1681
3979.00,1.1679
3978.00,1.1678
3977.00,1.1678
3976.00,1.1681
3975.00,1.1685
3974.00,1.1688
3973.00,1.1687
3972.00,1.1684
3971.00,1.1681
3970.00,1.1679
3969.00,1.1678
3968.00,1.1677
3967.00,1.1675
3966.00,1.1671
3965.00,1.1667
3964.00,1.1664
3963.00,1.1663
3962.00,1.1665
3961.00,1.1667
3960.00,1.1668
3959.00,1.1668
3958.00,1.1666
3957.00,1.1664
3956.00,1.1660
3955.00,1.1657
3954.00,1.1656
3953.00,1.1657
3952.00,1.1659
3951.00,1.1659
3950.00,1.1657
3949.00,1.1655
3948.00,1.1652
3947.00,1.1652
3946.00,1.1652
3945.00,1.1653
3944.00,1.1653
3943.00,1.1653
3942.00,1.1653
3941.00,1.1652
3940.00,1.1652
3939.00,1.1653
3938.00,1.1655
3937.00,1.1656
3936.00,1.1657
3935.00,1.1656
3934.00,1.1655
3933.00,1.1653
3932.00,1.1651
3931.00,1.1646
3930.00,1.1642
3929.00,1.1641
3928.00,1.1643
3927.00,1.1647
3926.00,1.1652
3925.00,1.1655
3924.00,1.1653
3923.00,1.1650
3922.00,1.1649
3921.00,1.1651
3920.00,1.1656
3919.00,1.1659
3918.00,1.1659
3917.00,1.1656
3916.00,1.1651
3915.00,1.1646
3914.00,1.1644
3913.00,1.1643
3912.00,1.1644
3911.00,1.1645
3910.00,1.1646
3909.00,1.1648
3908.00,1.1650
3907.00,1.1651
3906.00,1.1649
3905.00,1.1646
3904.00,1.1646
3903.00,1.1649
3902.00,1.1654
3901.00,1.1658
3900.00,1.1661
3899.00,1.1661
3898.00,1.1659
3897.00,1.1655
3896.00,1.1650
3895.00,1.1644
3894.00,1.1638
3893.00,1.1633
3892.00,1.1631
3891.00,1.1633
3890.00,1.1637
3889.00,1.1642
3888.00,1.1646
3887.00,1.1648
3886.00,1.1649
3885.00,1.1646
3884.00,1.1642
3883.00,1.1640
3882.00,1.1642
3881.00,1.1648
3880.00,1.1652
3879.00,1.1651
3878.00,1.1646
3877.00,1.1642
3876.00,1.1641
3875.00,1.1641
3874.00,1.1641
3873.00,1.1640
3872.00,1.1640
3871.00,1.1643
3870.00,1.1646
3869.00,1.1646
3868.00,1.1644
3867.00,1.1643
3866.00,1.1646
3865.00,1.1649
3864.00,1.1648
3863.00,1.1643
3862.00,1.1637
3861.00,1.1634
3860.00,1.1633
3859.00,1.1634
3858.00,1.1636
3857.00,1.1637
3856.00,1.1636
3855.00,1.1636
3854.00,1.1642
3853.00,1.1653
3852.00,1.1661
3851.00,1.1663
3850.00,1.1662
3849.00,1.1656
3848.00,1.1648
3847.00,1.1638
3846.00,1.1629
3845.00,1.1624
3844.00,1.1621
3843.00,1.1619
3842.00,1.1618
3841.00,1.1620
3840.00,1.1625
3839.00,1.1630
3838.00,1.1631
3837.00,1.1631
3836.00,1.1631
3835.00,1.1632
3834.00,1.1635
3833.00,1.1637
3832.00,1.1636
3831.00,1.1632
3830.00,1.1625
3829.00,1.1619
3828.00,1.1614
3827.00,1.1610
3826.00,1.1606
3825.00,1.1602
3824.00,1.1599
3823.00,1.1600
3822.00,1.1603
3821.00,1.1609
3820.00,1.1615
3819.00,1.1622
3818.00,1.1629
3817.00,1.1634
3816.00,1.1635
3815.00,1.1630
3814.00,1.1623
3813.00,1.1617
3812.00,1.1613
3811.00,1.1609
3810.00,1.1603
3809.00,1.1597
3808.00,1.1595
3807.00,1.1596
3806.00,1.1597
3805.00,1.1599
3804.00,1.1603
3803.00,1.1610
3802.00,1.1616
3801.00,1.1617
3800.00,1.1613
3799.00,1.1610
3798.00,1.1610
3797.00,1.1612
3796.00,1.1611
3795.00,1.1604
3794.00,1.1593
3793.00,1.1583
3792.00,1.1575
3791.00,1.1569
3790.00,1.1566
3789.00,1.1563
3788.00,1.1559
3787.00,1.1556
3786.00,1.1553
3785.00,1.1551
3784.00,1.1550
3783.00,1.1551
3782.00,1.1554
3781.00,1.1559
3780.00,1.1563
3779.00,1.1566
3778.00,1.1566
3777.00,1.1565
3776.00,1.1564
3775.00,1.1561
3774.00,1.1558
3773.00,1.1554
3772.00,1.1553
3771.00,1.1555
3770.00,1.1559
3769.00,1.1562
3768.00,1.1566
3767.00,1.1571
3766.00,1.1575
3765.00,1.1576
3764.00,1.1572
3763.00,1.1566
3762.00,1.1564
3761.00,1.1564
3760.00,1.1564
3759.00,1.1562
3758.00,1.1560
3757.00,1.1558
3756.00,1.1558
3755.00,1.1562
3754.00,1.1568
3753.00,1.1575
3752.00,1.1582
3751.00,1.1586
3750.00,1.1590
3749.00,1.1594
3748.00,1.1599
3747.00,1.1607
3746.00,1.1616
3745.00,1.1623
3744.00,1.1622
3743.00,1.1613
3742.00,1.1602
3741.00,1.1595
3740.00,1.1590
3739.00,1.1585
3738.00,1.1578
3737.00,1.1573
3736.00,1.1570
3735.00,1.1568
3734.00,1.1568
3733.00,1.1571
3732.00,1.1574
3731.00,1.1573
3730.00,1.1568
3729.00,1.1561
3728.00,1.1554
3727.00,1.1549
3726.00,1.1544
3725.00,1.1540
3724.00,1.1537
3723.00,1.1537
3722.00,1.1539
3721.00,1.1542
3720.00,1.1543
3719.00,1.1540
3718.00,1.1534
3717.00,1.1528
3716.00,1.1525
3715.00,1.1527
3714.00,1.1530
3713.00,1.1532
3712.00,1.1532
3711.00,1.1532
3710.00,1.1537
3709.00,1.1544
3708.00,1.1551
3707.00,1.1552
3706.00,1.1547
3705.00,1.1540
3704.00,1.1535
3703.00,1.1535
3702.00,1.1536
3701.00,1.1536
3700.00,1.1534
3699.00,1.1529
3698.00,1.1525
3697.00,1.1523
3696.00,1.1521
3695.00,1.1522
3694.00,1.1523
3693.00,1.1526
3692.00,1.1527
3691.00,1.1528
3690.00,1.1531
3689.00,1.1540
3688.00,1.1549
3687.00,1.1556
3686.00,1.1557
3685.00,1.1553
3684.00,1.1546
3683.00,1.1538
3682.00,1.1532
3681.00,1.1530
3680.00,1.1530
3679.00,1.1530
3678.00,1.1529
3677.00,1.1529
3676.00,1.1534
3675.00,1.1543
3674.00,1.1554
3673.00,1.1565
3672.00,1.1576
3671.00,1.1583
3670.00,1.1580
3669.00,1.1570
3668.00,1.1557
3667.00,1.1547
3666.00,1.1542
3665.00,1.1540
3664.00,1.1538
3663.00,1.1534
3662.00,1.1529
3661.00,1.1524
3660.00,1.1521
3659.00,1.1522
3658.00,1.1526
3657.00,1.1533
3656.00,1.1539
3655.00,1.1542
3654.00,1.1545
3653.00,1.1551
3652.00,1.1562
3651.00,1.1574
3650.00,1.1586
3649.00,1.1596
3648.00,1.1603
3647.00,1.1608
3646.00,1.1609
3645.00,1.1605
3644.00,1.1597
3643.00,1.1586
3642.00,1.1575
3641.00,1.1564
3640.00,1.1558
3639.00,1.1556
3638.00,1.1556
3637.00,1.1557
3636.00,1.1557
3635.00,1.1555
3634.00,1.1553
3633.00,1.1553
3632.00,1.1557
3631.00,1.1565
3630.00,1.1574
3629.00,1.1583
3628.00,1.1587
3627.00,1.1587
3626.00,1.1585
3625.00,1.1582
3624.00,1.1580
3623.00,1.1576
3622.00,1.1572
3621.00,1.1568
3620.00,1.1565
3619.00,1.1563
3618.00,1.1562
3617.00,1.1561
3616.00,1.1561
3615.00,1.1561
3614.00,1.1561
3613.00,1.1560
3612.00,1.1556
3611.00,1.1553
3610.00,1.1551
3609.00,1.1552
3608.00,1.1554
3607.00,1.1556
3606.00,1.1556
3605.00,1.1555
3604.00,1.1551
3603.00,1.1544
3602.00,1.1537
3601.00,1.1529
3600.00,1.1523
3599.00,1.1517
3598.00,1.1512
3597.00,1.1510
3596.00,1.1510
3595.00,1.1510
3594.00,1.1511
3593.00,1.1510
3592.00,1.1510
3591.00,1.1509
3590.00,1.1508
3589.00,1.1508
3588.00,1.1509
3587.00,1.1510
3586.00,1.1509
3585.00,1.1507
3584.00,1.1506
3583.00,1.1505
3582.00,1.1503
3581.00,1.1499
3580.00,1.1495
3579.00,1.1491
3578.00,1.1488
3577.00,1.1486
3576.00,1.1485
3575.00,1.1485
3574.00,1.1485
3573.00,1.1486
3572.00,1.1486
3571.00,1.1487
3570.00,1.1490
3569.00,1.1494
3568.00,1.1498
3567.00,1.1500
3566.00,1.1500
3565.00,1.1499
3564.00,1.1499
3563.00,1.1500
3562.00,1.1500
3561.00,1.1499
3560.00,1.1497
3559.00,1.1496
3558.00,1.1495
3557.00,1.1495
3556.00,1.1494
3555.00,1.1494
3554.00,1.1493
3553.00,1.1492
3552.00,1.1492
3551.00,1.1492
3550.00,1.1495
3549.00,1.1499
3548.00,1.1503
3547.00,1.1506
3546.00,1.1507
3545.00,1.1507
3544.00,1.1506
3543.00,1.1506
3542.00,1.1507
3541.00,1.1508
3540.00,1.1510
3539.00,1.1512
3538.00,1.1510
3537.00,1.1505
3536.00,1.1499
3535.00,1.1494
3534.00,1.1490
3533.00,1.1487
3532.00,1.1486
3531.00,1.1486
3530.00,1.1489
3529.00,1.1493
3528.00,1.1497
3527.00,1.1502
3526.00,1.1506
3525.00,1.1511
3524.00,1.1513
3523.00,1.1511
3522.00,1.1507
3521.00,1.1505
3520.00,1.1505
3519.00,1.1507
3518.00,1.1509
3517.00,1.1511
3516.00,1.1513
3515.00,1.1516
3514.00,1.1516
3513.00,1.1513
3512.00,1.1507
3511.00,1.1502
3510.00,1.1499
3509.00,1.1500
3508.00,1.1503
3507.00,1.1508
3506.00,1.1513
3505.00,1.1518
3504.00,1.1522
3503.00,1.1526
3502.00,1.1530
3501.00,1.1532
3500.00,1.1534
3499.00,1.1533
3498.00,1.1531
3497.00,1.1528
3496.00,1.1527
3495.00,1.1528
3494.00,1.1530
3493.00,1.1534
3492.00,1.1539
3491.00,1.1544
3490.00,1.1549
3489.00,1.1552
3488.00,1.1553
3487.00,1.1553
3486.00,1.1553
3485.00,1.1553
3484.00,1.1555
3483.00,1.1557
3482.00,1.1559
3481.00,1.1562
3480.00,1.1566
3479.00,1.1571
3478.00,1.1574
3477.00,1.1575
3476.00,1.1573
3475.00,1.1571
3474.00,1.1571
3473.00,1.1573
3472.00,1.1575
3471.00,1.1575
3470.00,1.1575
3469.00,1.1574
3468.00,1.1572
3467.00,1.1570
3466.00,1.1569
3465.00,1.1572
3464.00,1.1580
3463.00,1.1590
3462.00,1.1597
3461.00,1.1599
3460.00,1.1597
3459.00,1.1593
3458.00,1.1589
3457.00,1.1586
3456.00,1.1587
3455.00,1.1591
3454.00,1.1595
3453.00,1.1600
3452.00,1.1605
3451.00,1.1607
3450.00,1.1608
3449.00,1.1606
3448.00,1.1604
3447.00,1.1603
3446.00,1.1605
3445.00,1.1610
3444.00,1.1614
3443.00,1.1617
3442.00,1.1617
3441.00,1.1617
3440.00,1.1620
3439.00,1.1624
3438.00,1.1628
3437.00,1.1632
3436.00,1.1635
3435.00,1.1637
3434.00,1.1638
3433.00,1.1640
3432.00,1.1642
3431.00,1.1645
3430.00,1.1649
3429.00,1.1652
3428.00,1.1656
3427.00,1.1659
3426.00,1.1660
3425.00,1.1659
3424.00,1.1659
3423.00,1.1662
3422.00,1.1667
3421.00,1.1672
3420.00,1.1676
3419.00,1.1677
3418.00,1.1677
3417.00,1.1678
3416.00,1.1683
3415.00,1.1690
3414.00,1.1695
3413.00,1.1699
3412.00,1.1701
3411.00,1.1703
3410.00,1.1707
3409.00,1.1710
3408.00,1.1714
3407.00,1.1717
3406.00,1.1720
3405.00,1.1722
3404.00,1.1724
3403.00,1.1727
3402.00,1.1732
3401.00,1.1739
3400.00,1.1747
3399.00,1.1753
3398.00,1.1758
3397.00,1.1760
3396.00,1.1760
3395.00,1.1760
3394.00,1.1759
3393.00,1.1757
3392.00,1.1756
3391.00,1.1758
3390.00,1.1764
3389.00,1.1770
3388.00,1.1776
3387.00,1.1780
3386.00,1.1783
3385.00,1.1785
3384.00,1.1785
3383.00,1.1787
3382.00,1.1789
3381.00,1.1793
3380.00,1.1796
3379.00,1.1800
3378.00,1.1804
3377.00,1.1808
3376.00,1.1812
3375.00,1.1816
3374.00,1.1820
3373.00,1.1826
3372.00,1.1831
3371.00,1.1835
3370.00,1.1839
3369.00,1.1841
3368.00,1.1843
3367.00,1.1844
3366.00,1.1844
3365.00,1.1845
3364.00,1.1847
3363.00,1.1850
3362.00,1.1856
3361.00,1.1865
3360.00,1.1876
3359.00,1.1888
3358.00,1.1895
3357.00,1.1898
3356.00,1.1899
3355.00,1.1902
3354.00,1.1908
3353.00,1.1915
3352.00,1.1920
3351.00,1.1924
3350.00,1.1928
3349.00,1.1931
3348.00,1.1933
3347.00,1.1933
3346.00,1.1932
3345.00,1.1933
3344.00,1.1937
3343.00,1.1944
3342.00,1.1952
3341.00,1.1959
3340.00,1.1960
3339.00,1.1959
3338.00,1.1958
3337.00,1.1960
3336.00,1.1965
3335.00,1.1968
3334.00,1.1970
3333.00,1.1970
3332.00,1.1969
3331.00,1.1969
3330.00,1.1969
3329.00,1.1969
3328.00,1.1968
3327.00,1.1968
3326.00,1.1968
3325.00,1.1967
3324.00,1.1965
3323.00,1.1960
3322.00,1.1956
3321.00,1.1953
3320.00,1.1952
3319.00,1.1951
3318.00,1.1949
3317.00,1.1947
3316.00,1.1945
3315.00,1.1943
3314.00,1.1941
3313.00,1.1938
3312.00,1.1934
3311.00,1.1929
3310.00,1.1926
3309.00,1.1925
3308.00,1.1927
3307.00,1.1929
3306.00,1.1929
3305.00,1.1927
3304.00,1.1922
3303.00,1.1916
3302.00,1.1910
3301.00,1.1906
3300.00,1.1903
3299.00,1.1902
3298.00,1.1900
3297.00,1.1897
3296.00,1.1895
3295.00,1.1894
3294.00,1.1894
3293.00,1.1893
3292.00,1.1891
3291.00,1.1889
3290.00,1.1887
3289.00,1.1885
3288.00,1.1883
3287.00,1.1883
3286.00,1.1884
3285.00,1.1887
3284.00,1.1889
3283.00,1.1888
3282.00,1.1885
3281.00,1.1882
3280.00,1.1880
3279.00,1.1879
3278.00,1.1878
3277.00,1.1877
3276.00,1.1876
3275.00,1.1874
3274.00,1.1875
3273.00,1.1876
3272.00,1.1877
3271.00,1.1877
3270.00,1.1876
3269.00,1.1873
3268.00,1.1870
3267.00,1.1869
3266.00,1.1871
3265.00,1.1873
3264.00,1.1875
3263.00,1.1874
3262.00,1.1874
3261.00,1.1874
3260.00,1.1874
3259.00,1.1872
3258.00,1.1869
3257.00,1.1867
3256.00,1.1867
3255.00,1.1870
3254.00,1.1875
3253.00,1.1878
3252.00,1.1878
3251.00,1.1876
3250.00,1.1874
3249.00,1.1874
3248.00,1.1874
3247.00,1.1874
3246.00,1.1874
3245.00,1.1873
3244.00,1.1873
3243.00,1.1872
3242.00,1.1872
3241.00,1.1872
3240.00,1.1871
3239.00,1.1869
3238.00,1.1865
3237.00,1.1861
3236.00,1.1858
3235.00,1.1855
3234.00,1.1853
3233.00,1.1852
3232.00,1.1853
3231.00,1.1853
3230.00,1.1852
3229.00,1.1850
3228.00,1.1846
3227.00,1.1841
3226.00,1.1837
3225.00,1.1834
3224.00,1.1832
3223.00,1.1832
3222.00,1.1831
3221.00,1.1830
3220.00,1.1827
3219.00,1.1822
3218.00,1.1819
3217.00,1.1817
3216.00,1.1816
3215.00,1.1815
3214.00,1.1810
3213.00,1.1805
3212.00,1.1799
3211.00,1.1796
3210.00,1.1793
3209.00,1.1792
3208.00,1.1790
3207.00,1.1787
3206.00,1.1782
3205.00,1.1778
3204.00,1.1776
3203.00,1.1776
3202.00,1.1777
3201.00,1.1779
3200.00,1.1779
3199.00,1.1778
3198.00,1.1773
3197.00,1.1767
3196.00,1.1761
3195.00,1.1757
3194.00,1.1754
3193.00,1.1751
3192.00,1.1746
3191.00,1.1741
3190.00,1.1737
3189.00,1.1734
3188.00,1.1732
3187.00,1.1729
3186.00,1.1724
3185.00,1.1720
3184.00,1.1717
3183.00,1.1714
3182.00,1.1712
3181.00,1.1709
3180.00,1.1704
3179.00,1.1699
3178.00,1.1692
3177.00,1.1686
3176.00,1.1681
3175.00,1.1678
3174.00,1.1676
3173.00,1.1675
3172.00,1.1675
3171.00,1.1673
3170.00,1.1671
3169.00,1.1666
3168.00,1.1660
3167.00,1.1655
3166.00,1.1653
3165.00,1.1652
3164.00,1.1649
3163.00,1.1644
3162.00,1.1637
3161.00,1.1631
3160.00,1.1629
3159.00,1.1628
3158.00,1.1626
3157.00,1.1622
3156.00,1.1615
3155.00,1.1609
3154.00,1.1606
3153.00,1.1606
3152.00,1.1606
3151.00,1.1606
3150.00,1.1604
3149.00,1.1600
3148.00,1.1597
3147.00,1.1596
3146.00,1.1595
3145.00,1.1594
3144.00,1.1593
3143.00,1.1591
3142.00,1.1591
3141.00,1.1590
3140.00,1.1589
3139.00,1.1587
3138.00,1.1584
3137.00,1.1581
3136.00,1.1577
3135.00,1.1575
3134.00,1.1574
3133.00,1.1575
3132.00,1.1576
3131.00,1.1576
3130.00,1.1575
3129.00,1.1574
3128.00,1.1571
3127.00,1.1567
3126.00,1.1564
3125.00,1.1560
3124.00,1.1558
3123.00,1.1556
3122.00,1.1555
3121.00,1.1557
3120.00,1.1559
3119.00,1.1561
3118.00,1.1562
3117.00,1.1561
3116.00,1.1559
3115.00,1.1555
3114.00,1.1552
3113.00,1.1550
3112.00,1.1551
3111.00,1.1554
3110.00,1.1558
3109.00,1.1560
3108.00,1.1561
3107.00,1.1561
3106.00,1.1563
3105.00,1.1566
3104.00,1.1567
3103.00,1.1568
3102.00,1.1570
3101.00,1.1573
3100.00,1.1577
3099.00,1.1581
3098.00,1.1583
3097.00,1.1585
3096.00,1.1587
3095.00,1.1589
3094.00,1.1592
3093.00,1.1594
3092.00,1.1597
3091.00,1.1600
3090.00,1.1603
3089.00,1.1606
3088.00,1.1611
3087.00,1.1618
3086.00,1.1626
3085.00,1.1634
3084.00,1.1641
3083.00,1.1648
3082.00,1.1654
3081.00,1.1662
3080.00,1.1671
3079.00,1.1680
3078.00,1.1690
3077.00,1.1701
3076.00,1.1713
3075.00,1.1725
3074.00,1.1735
3073.00,1.1743
3072.00,1.1750
3071.00,1.1759
3070.00,1.1768
3069.00,1.1777
3068.00,1.1786
3067.00,1.1796
3066.00,1.1807
3065.00,1.1817
3064.00,1.1824
3063.00,1.1829
3062.00,1.1832
3061.00,1.1835
3060.00,1.1839
3059.00,1.1843
3058.00,1.1847
3057.00,1.1852
3056.00,1.1858
3055.00,1.1865
3054.00,1.1871
3053.00,1.1876
3052.00,1.1881
3051.00,1.1885
3050.00,1.1891
3049.00,1.1898
3048.00,1.1906
3047.00,1.1915
3046.00,1.1924
3045.00,1.1934
3044.00,1.1943
3043.00,1.1951
3042.00,1.1956
3041.00,1.1959
3040.00,1.1960
3039.00,1.1963
3038.00,1.1968
3037.00,1.1976
3036.00,1.1983
3035.00,1.1990
3034.00,1.1996
3033.00,1.2002
3032.00,1.2009
3031.00,1.2017
3030.00,1.2027
3029.00,1.2038
3028.00,1.2051
3027.00,1.2065
3026.00,1.2083
3025.00,1.2103
3024.00,1.2124
3023.00,1.2141
3022.00,1.2155
3021.00,1.2169
3020.00,1.2184
3019.00,1.2203
3018.00,1.2223
3017.00,1.2244
3016.00,1.2266
3015.00,1.2289
3014.00,1.2311
3013.00,1.2333
3012.00,1.2355
3011.00,1.2379
3010.00,1.2402
3009.00,1.2426
3008.00,1.2449
3007.00,1.2471
3006.00,1.2494
3005.00,1.2518
3004.00,1.2543
3003.00,1.2569
3002.00,1.2594
3001.00,1.2619
3000.00,1.2644
2999.00,1.2672
2998.00,1.2703
2997.00,1.2739
2996.00,1.2778
2995.00,1.2822
2994.00,1.2870
2993.00,1.2925
2992.00,1.2986
2991.00,1.3055
2990.00,1.3131
2989.00,1.3211
2988.00,1.3300
2987.00,1.3402
2986.00,1.3520
2985.00,1.3652
2984.00,1.3796
2983.00,1.3952
2982.00,1.4124
2981.00,1.4314
2980.00,1.4523
2979.00,1.4750
2978.00,1.4997
2977.00,1.5266
2976.00,1.5560
2975.00,1.5878
2974.00,1.6221
2973.00,1.6586
2972.00,1.6975
2971.00,1.7390
2970.00,1.7832
2969.00,1.8299
2968.00,1.8780
2967.00,1.9266
2966.00,1.9753
2965.00,2.0241
2964.00,2.0726
2963.00,2.1198
2962.00,2.1646
2961.00,2.2060
2960.00,2.2431
2959.00,2.2757
2958.00,2.3043
2957.00,2.3290
2956.00,2.3488
2955.00,2.3636
2954.00,2.3743
2953.00,2.3815
2952.00,2.3834
2951.00,2.3786
2950.00,2.3686
2949.00,2.3584
2948.00,2.3527
2947.00,2.3536
2946.00,2.3619
2945.00,2.3785
2944.00,2.4037
2943.00,2.4351
2942.00,2.4682
2941.00,2.5008
2940.00,2.5362
2939.00,2.5804
2938.00,2.6376
2937.00,2.7065
2936.00,2.7821
2935.00,2.8585
2934.00,2.9302
2933.00,2.9924
2932.00,3.0450
2931.00,3.0972
2930.00,3.1660
2929.00,3.2624
2928.00,3.3711
2927.00,3.4407
2926.00,3.4395
2925.00,3.4017
2924.00,3.3672
2923.00,3.3418
2922.00,3.3210
2921.00,3.3043
2920.00,3.2849
2919.00,3.2452
2918.00,3.1740
2917.00,3.0853
2916.00,3.0018
2915.00,2.9330
2914.00,2.8743
2913.00,2.8188
2912.00,2.7655
2911.00,2.7168
2910.00,2.6736
2909.00,2.6337
2908.00,2.5940
2907.00,2.5545
2906.00,2.5187
2905.00,2.4889
2904.00,2.4632
2903.00,2.4365
2902.00,2.4054
2901.00,2.3711
2900.00,2.3379
2899.00,2.3087
2898.00,2.2835
2897.00,2.2601
2896.00,2.2353
2895.00,2.2077
2894.00,2.1785
2893.00,2.1507
2892.00,2.1252
2891.00,2.1005
2890.00,2.0747
2889.00,2.0480
2888.00,2.0229
2887.00,2.0016
2886.00,1.9839
2885.00,1.9681
2884.00,1.9533
2883.00,1.9400
2882.00,1.9298
2881.00,1.9242
2880.00,1.9241
2879.00,1.9294
2878.00,1.9397
2877.00,1.9545
2876.00,1.9731
2875.00,1.9943
2874.00,2.0164
2873.00,2.0377
2872.00,2.0570
2871.00,2.0733
2870.00,2.0864
2869.00,2.0968
2868.00,2.1059
2867.00,2.1153
2866.00,2.1266
2865.00,2.1419
2864.00,2.1629
2863.00,2.1902
2862.00,2.2227
2861.00,2.2593
2860.00,2.3001
2859.00,2.3453
2858.00,2.3927
2857.00,2.4376
2856.00,2.4761
2855.00,2.5061
2854.00,2.5264
2853.00,2.5346
2852.00,2.5266
2851.00,2.5001
2850.00,2.4562
2849.00,2.3986
2848.00,2.3312
2847.00,2.2569
2846.00,2.1788
2845.00,2.1009
2844.00,2.0265
2843.00,1.9571
2842.00,1.8925
2841.00,1.8319
2840.00,1.7752
2839.00,1.7222
2838.00,1.6730
2837.00,1.6282
2836.00,1.5883
2835.00,1.5532
2834.00,1.5220
2833.00,1.4938
2832.00,1.4682
2831.00,1.4449
2830.00,1.4240
2829.00,1.4050
2828.00,1.3878
2827.00,1.3722
2826.00,1.3582
2825.00,1.3456
2824.00,1.3343
2823.00,1.3243
2822.00,1.3154
2821.00,1.3072
2820.00,1.2993
2819.00,1.2917
2818.00,1.2848
2817.00,1.2786
2816.00,1.2728
2815.00,1.2673
2814.00,1.2621
2813.00,1.2573
2812.00,1.2528
2811.00,1.2486
2810.00,1.2445
2809.00,1.2405
2808.00,1.2366
2807.00,1.2327
2806.00,1.2289
2805.00,1.2252
2804.00,1.2216
2803.00,1.2183
2802.00,1.2154
2801.00,1.2127
2800.00,1.2101
2799.00,1.2076
2798.00,1.2052
2797.00,1.2029
2796.00,1.2009
2795.00,1.1989
2794.00,1.1969
2793.00,1.1947
2792.00,1.1925
2791.00,1.1904
2790.00,1.1883
2789.00,1.1861
2788.00,1.1838
2787.00,1.1816
2786.00,1.1795
2785.00,1.1777
2784.00,1.1761
2783.00,1.1748
2782.00,1.1736
2781.00,1.1723
2780.00,1.1709
2779.00,1.1696
2778.00,1.1683
2777.00,1.1671
2776.00,1.1659
2775.00,1.1648
2774.00,1.1635
2773.00,1.1620
2772.00,1.1605
2771.00,1.1593
2770.00,1.1585
2769.00,1.1579
2768.00,1.1574
2767.00,1.1570
2766.00,1.1566
2765.00,1.1563
2764.00,1.1560
2763.00,1.1556
2762.00,1.1550
2761.00,1.1545
2760.00,1.1541
2759.00,1.1539
2758.00,1.1536
2757.00,1.1531
2756.00,1.1526
2755.00,1.1523
2754.00,1.1521
2753.00,1.1521
2752.00,1.1520
2751.00,1.1519
2750.00,1.1517
2749.00,1.1515
2748.00,1.1512
2747.00,1.1510
2746.00,1.1509
2745.00,1.1508
2744.00,1.1507
2743.00,1.1507
2742.00,1.1511
2741.00,1.1517
2740.00,1.1523
2739.00,1.1528
2738.00,1.1533
2737.00,1.1538
2736.00,1.1544
2735.00,1.1550
2734.00,1.1557
2733.00,1.1566
2732.00,1.1573
2731.00,1.1579
2730.00,1.1582
2729.00,1.1581
2728.00,1.1580
2727.00,1.1577
2726.00,1.1576
2725.00,1.1574
2724.00,1.1572
2723.00,1.1570
2722.00,1.1568
2721.00,1.1566
2720.00,1.1561
2719.00,1.1554
2718.00,1.1546
2717.00,1.1539
2716.00,1.1532
2715.00,1.1524
2714.00,1.1515
2713.00,1.1505
2712.00,1.1496
2711.00,1.1487
2710.00,1.1479
2709.00,1.1471
2708.00,1.1462
2707.00,1.1454
2706.00,1.1448
2705.00,1.1445
2704.00,1.1445
2703.00,1.1445
2702.00,1.1445
2701.00,1.1443
2700.00,1.1439
2699.00,1.1434
2698.00,1.1429
2697.00,1.1427
2696.00,1.1426
2695.00,1.1427
2694.00,1.1429
2693.00,1.1432
2692.00,1.1436
2691.00,1.1439
2690.00,1.1439
2689.00,1.1438
2688.00,1.1437
2687.00,1.1438
2686.00,1.1439
2685.00,1.1440
2684.00,1.1440
2683.00,1.1438
2682.00,1.1436
2681.00,1.1436
2680.00,1.1436
2679.00,1.1436
2678.00,1.1437
2677.00,1.1438
2676.00,1.1440
2675.00,1.1440
2674.00,1.1440
2673.00,1.1439
2672.00,1.1436
2671.00,1.1432
2670.00,1.1428
2669.00,1.1426
2668.00,1.1426
2667.00,1.1425
2666.00,1.1422
2665.00,1.1417
2664.00,1.1413
2663.00,1.1409
2662.00,1.1406
2661.00,1.1403
2660.00,1.1398
2659.00,1.1393
2658.00,1.1389
2657.00,1.1387
2656.00,1.1386
2655.00,1.1383
2654.00,1.1377
2653.00,1.1370
2652.00,1.1363
2651.00,1.1358
2650.00,1.1353
2649.00,1.1349
2648.00,1.1345
2647.00,1.1343
2646.00,1.1341
2645.00,1.1340
2644.00,1.1337
2643.00,1.1332
2642.00,1.1327
2641.00,1.1322
2640.00,1.1318
2639.00,1.1315
2638.00,1.1312
2637.00,1.1310
2636.00,1.1307
2635.00,1.1302
2634.00,1.1297
2633.00,1.1293
2632.00,1.1291
2631.00,1.1291
2630.00,1.1288
2629.00,1.1285
2628.00,1.1281
2627.00,1.1277
2626.00,1.1274
2625.00,1.1271
2624.00,1.1267
2623.00,1.1263
2622.00,1.1260
2621.00,1.1258
2620.00,1.1255
2619.00,1.1252
2618.00,1.1249
2617.00,1.1248
2616.00,1.1247
2615.00,1.1245
2614.00,1.1241
2613.00,1.1237
2612.00,1.1234
2611.00,1.1232
2610.00,1.1231
2609.00,1.1229
2608.00,1.1227
2607.00,1.1225
2606.00,1.1222
2605.00,1.1220
2604.00,1.1216
2603.00,1.1211
2602.00,1.1207
2601.00,1.1205
2600.00,1.1202
2599.00,1.1200
2598.00,1.1198
2597.00,1.1195
2596.00,1.1193
2595.00,1.1191
2594.00,1.1189
2593.00,1.1188
2592.00,1.1186
2591.00,1.1182
2590.00,1.1178
2589.00,1.1174
2588.00,1.1169
2587.00,1.1163
2586.00,1.1157
2585.00,1.1153
2584.00,1.1152
2583.00,1.1152
2582.00,1.1151
2581.00,1.1146
2580.00,1.1138
2579.00,1.1131
2578.00,1.1124
2577.00,1.1119
2576.00,1.1114
2575.00,1.1110
2574.00,1.1104
2573.00,1.1098
2572.00,1.1092
2571.00,1.1087
2570.00,1.1083
2569.00,1.1078
2568.00,1.1074
2567.00,1.1072
2566.00,1.1073
2565.00,1.1072
2564.00,1.1069
2563.00,1.1064
2562.00,1.1058
2561.00,1.1054
2560.00,1.1052
2559.00,1.1051
2558.00,1.1049
2557.00,1.1046
2556.00,1.1043
2555.00,1.1040
2554.00,1.1036
2553.00,1.1033
2552.00,1.1030
2551.00,1.1029
2550.00,1.1027
2549.00,1.1025
2548.00,1.1021
2547.00,1.1018
2546.00,1.1015
2545.00,1.1014
2544.00,1.1013
2543.00,1.1012
2542.00,1.1010
2541.00,1.1007
2540.00,1.1005
2539.00,1.1002
2538.00,1.0998
2537.00,1.0995
2536.00,1.0992
2535.00,1.0991
2534.00,1.0991
2533.00,1.0991
2532.00,1.0989
2531.00,1.0987
2530.00,1.0984
2529.00,1.0982
2528.00,1.0980
2527.00,1.0977
2526.00,1.0973
2525.00,1.0969
2524.00,1.0967
2523.00,1.0966
2522.00,1.0966
2521.00,1.0965
2520.00,1.0962
2519.00,1.0957
2518.00,1.0952
2517.00,1.0949
2516.00,1.0947
2515.00,1.0945
2514.00,1.0943
2513.00,1.0940
2512.00,1.0938
2511.00,1.0937
2510.00,1.0936
2509.00,1.0935
2508.00,1.0933
2507.00,1.0931
2506.00,1.0930
2505.00,1.0929
2504.00,1.0928
2503.00,1.0927
2502.00,1.0926
2501.00,1.0924
2500.00,1.0922
2499.00,1.0920
2498.00,1.0919
2497.00,1.0918
2496.00,1.0917
2495.00,1.0916
2494.00,1.0915
2493.00,1.0913
2492.00,1.0912
2491.00,1.0910
2490.00,1.0909
2489.00,1.0908
2488.00,1.0906
2487.00,1.0903
2486.00,1.0898
2485.00,1.0893
2484.00,1.0890
2483.00,1.0887
2482.00,1.0886
2481.00,1.0886
2480.00,1.0886
2479.00,1.0885
2478.00,1.0884
2477.00,1.0883
2476.00,1.0881
2475.00,1.0878
2474.00,1.0876
2473.00,1.0874
2472.00,1.0872
2471.00,1.0872
2470.00,1.0871
2469.00,1.0869
2468.00,1.0866
2467.00,1.0862
2466.00,1.0858
2465.00,1.0855
2464.00,1.0854
2463.00,1.0853
2462.00,1.0851
2461.00,1.0850
2460.00,1.0849
2459.00,1.0849
2458.00,1.0849
2457.00,1.0849
2456.00,1.0847
2455.00,1.0846
2454.00,1.0845
2453.00,1.0845
2452.00,1.0844
2451.00,1.0843
2450.00,1.0843
2449.00,1.0844
2448.00,1.0846
2447.00,1.0848
2446.00,1.0848
2445.00,1.0848
2444.00,1.0848
2443.00,1.0848
2442.00,1.0848
2441.00,1.0848
2440.00,1.0849
2439.00,1.0850
2438.00,1.0851
2437.00,1.0850
2436.00,1.0848
2435.00,1.0846
2434.00,1.0843
2433.00,1.0841
2432.00,1.0841
2431.00,1.0842
2430.00,1.0842
2429.00,1.0841
2428.00,1.0839
2427.00,1.0837
2426.00,1.0835
2425.00,1.0834
2424.00,1.0831
2423.00,1.0828
2422.00,1.0824
2421.00,1.0820
2420.00,1.0818
2419.00,1.0817
2418.00,1.0816
2417.00,1.0816
2416.00,1.0816
2415.00,1.0816
2414.00,1.0815
2413.00,1.0814
2412.00,1.0813
2411.00,1.0813
2410.00,1.0812
2409.00,1.0811
2408.00,1.0809
2407.00,1.0806
2406.00,1.0803
2405.00,1.0800
2404.00,1.0799
2403.00,1.0799
2402.00,1.0800
2401.00,1.0801
2400.00,1.0801
2399.00,1.0800
2398.00,1.0799
2397.00,1.0797
2396.00,1.0796
2395.00,1.0796
2394.00,1.0797
2393.00,1.0798
2392.00,1.0798
2391.00,1.0798
2390.00,1.0798
2389.00,1.0799
2388.00,1.0801
2387.00,1.0801
2386.00,1.0799
2385.00,1.0795
2384.00,1.0791
2383.00,1.0787
2382.00,1.0783
2381.00,1.0777
2380.00,1.0769
2379.00,1.0760
2378.00,1.0753
2377.00,1.0748
2376.00,1.0745
2375.00,1.0743
2374.00,1.0740
2373.00,1.0738
2372.00,1.0736
2371.00,1.0736
2370.00,1.0737
2369.00,1.0738
2368.00,1.0738
2367.00,1.0741
2366.00,1.0744
2365.00,1.0747
2364.00,1.0747
2363.00,1.0745
2362.00,1.0741
2361.00,1.0740
2360.00,1.0740
2359.00,1.0741
2358.00,1.0742
2357.00,1.0742
2356.00,1.0744
2355.00,1.0748
2354.00,1.0753
2353.00,1.0758
2352.00,1.0763
2351.00,1.0767
2350.00,1.0770
2349.00,1.0768
2348.00,1.0760
2347.00,1.0748
2346.00,1.0733
2345.00,1.0722
2344.00,1.0719
2343.00,1.0721
2342.00,1.0726
2341.00,1.0730
2340.00,1.0730
2339.00,1.0727
2338.00,1.0723
2337.00,1.0720
2336.00,1.0718
2335.00,1.0716
2334.00,1.0717
2333.00,1.0719
2332.00,1.0724
2331.00,1.0726
2330.00,1.0725
2329.00,1.0721
2328.00,1.0719
2327.00,1.0719
2326.00,1.0720
2325.00,1.0719
2324.00,1.0717
2323.00,1.0715
2322.00,1.0713
2321.00,1.0711
2320.00,1.0708
2319.00,1.0707
2318.00,1.0708
2317.00,1.0708
2316.00,1.0707
2315.00,1.0705
2314.00,1.0704
2313.00,1.0702
2312.00,1.0701
2311.00,1.0700
2310.00,1.0699
2309.00,1.0699
2308.00,1.0698
2307.00,1.0695
2306.00,1.0693
2305.00,1.0693
2304.00,1.0693
2303.00,1.0693
2302.00,1.0694
2301.00,1.0693
2300.00,1.0691
2299.00,1.0689
2298.00,1.0688
2297.00,1.0688
2296.00,1.0688
2295.00,1.0688
2294.00,1.0687
2293.00,1.0686
2292.00,1.0687
2291.00,1.0688
2290.00,1.0690
2289.00,1.0692
2288.00,1.0693
2287.00,1.0692
2286.00,1.0688
2285.00,1.0686
2284.00,1.0684
2283.00,1.0683
2282.00,1.0681
2281.00,1.0679
2280.00,1.0677
2279.00,1.0675
2278.00,1.0674
2277.00,1.0672
2276.00,1.0670
2275.00,1.0668
2274.00,1.0666
2273.00,1.0665
2272.00,1.0665
2271.00,1.0667
2270.00,1.0667
2269.00,1.0666
2268.00,1.0664
2267.00,1.0663
2266.00,1.0662
2265.00,1.0660
2264.00,1.0658
2263.00,1.0654
2262.00,1.0651
2261.00,1.0649
2260.00,1.0650
2259.00,1.0653
2258.00,1.0655
2257.00,1.0654
2256.00,1.0652
2255.00,1.0650
2254.00,1.0647
2253.00,1.0644
2252.00,1.0641
2251.00,1.0638
2250.00,1.0635
2249.00,1.0634
2248.00,1.0633
2247.00,1.0633
2246.00,1.0633
2245.00,1.0633
2244.00,1.0632
2243.00,1.0631
2242.00,1.0630
2241.00,1.0629
2240.00,1.0628
2239.00,1.0628
2238.00,1.0628
2237.00,1.0628
2236.00,1.0626
2235.00,1.0623
2234.00,1.0620
2233.00,1.0619
2232.00,1.0619
2231.00,1.0619
2230.00,1.0618
2229.00,1.0616
2228.00,1.0615
2227.00,1.0615
2226.00,1.0616
2225.00,1.0616
2224.00,1.0616
2223.00,1.0615
2222.00,1.0616
2221.00,1.0617
2220.00,1.0619
2219.00,1.0618
2218.00,1.0617
2217.00,1.0614
2216.00,1.0609
2215.00,1.0604
2214.00,1.0599
2213.00,1.0597
2212.00,1.0596
2211.00,1.0597
2210.00,1.0598
2209.00,1.0599
2208.00,1.0599
2207.00,1.0597
2206.00,1.0596
2205.00,1.0595
2204.00,1.0594
2203.00,1.0593
2202.00,1.0591
2201.00,1.0590
2200.00,1.0590
2199.00,1.0589
2198.00,1.0587
2197.00,1.0585
2196.00,1.0584
2195.00,1.0584
2194.00,1.0584
2193.00,1.0585
2192.00,1.0584
2191.00,1.0583
2190.00,1.0580
2189.00,1.0579
2188.00,1.0580
2187.00,1.0583
2186.00,1.0585
2185.00,1.0584
2184.00,1.0581
2183.00,1.0579
2182.00,1.0578
2181.00,1.0580
2180.00,1.0581
2179.00,1.0580
2178.00,1.0580
2177.00,1.0579
2176.00,1.0579
2175.00,1.0578
2174.00,1.0575
2173.00,1.0574
2172.00,1.0574
2171.00,1.0577
2170.00,1.0579
2169.00,1.0580
2168.00,1.0579
2167.00,1.0577
2166.00,1.0575
2165.00,1.0573
2164.00,1.0571
2163.00,1.0570
2162.00,1.0568
2161.00,1.0568
2160.00,1.0568
2159.00,1.0567
2158.00,1.0566
2157.00,1.0565
2156.00,1.0564
2155.00,1.0564
2154.00,1.0564
2153.00,1.0564
2152.00,1.0563
2151.00,1.0560
2150.00,1.0557
2149.00,1.0556
2148.00,1.0555
2147.00,1.0554
2146.00,1.0550
2145.00,1.0546
2144.00,1.0542
2143.00,1.0540
2142.00,1.0541
2141.00,1.0542
2140.00,1.0544
2139.00,1.0543
2138.00,1.0541
2137.00,1.0537
2136.00,1.0533
2135.00,1.0529
2134.00,1.0526
2133.00,1.0526
2132.00,1.0528
2131.00,1.0531
2130.00,1.0533
2129.00,1.0532
2128.00,1.0529
2127.00,1.0525
2126.00,1.0522
2125.00,1.0520
2124.00,1.0518
2123.00,1.0516
2122.00,1.0514
2121.00,1.0515
2120.00,1.0516
2119.00,1.0515
2118.00,1.0512
2117.00,1.0510
2116.00,1.0509
2115.00,1.0511
2114.00,1.0513
2113.00,1.0515
2112.00,1.0515
2111.00,1.0515
2110.00,1.0514
2109.00,1.0515
2108.00,1.0515
2107.00,1.0514
2106.00,1.0512
2105.00,1.0511
2104.00,1.0512
2103.00,1.0514
2102.00,1.0516
2101.00,1.0518
2100.00,1.0518
2099.00,1.0517
2098.00,1.0515
2097.00,1.0512
2096.00,1.0510
2095.00,1.0509
2094.00,1.0508
2093.00,1.0507
2092.00,1.0506
2091.00,1.0504
2090.00,1.0504
2089.00,1.0504
2088.00,1.0503
2087.00,1.0503
2086.00,1.0503
2085.00,1.0503
2084.00,1.0502
2083.00,1.0499
2082.00,1.0495
2081.00,1.0495
2080.00,1.0497
2079.00,1.0499
2078.00,1.0500
2077.00,1.0498
2076.00,1.0494
2075.00,1.0491
2074.00,1.0488
2073.00,1.0487
2072.00,1.0487
2071.00,1.0487
2070.00,1.0486
2069.00,1.0486
2068.00,1.0485
2067.00,1.0484
2066.00,1.0483
2065.00,1.0481
2064.00,1.0479
2063.00,1.0478
2062.00,1.0477
2061.00,1.0478
2060.00,1.0481
2059.00,1.0483
2058.00,1.0483
2057.00,1.0481
2056.00,1.0478
2055.00,1.0475
2054.00,1.0473
2053.00,1.0474
2052.00,1.0475
2051.00,1.0478
2050.00,1.0480
2049.00,1.0482
2048.00,1.0484
2047.00,1.0485
2046.00,1.0483
2045.00,1.0481
2044.00,1.0480
2043.00,1.0480
2042.00,1.0482
2041.00,1.0485
2040.00,1.0488
2039.00,1.0489
2038.00,1.0488
2037.00,1.0488
2036.00,1.0488
2035.00,1.0489
2034.00,1.0489
2033.00,1.0488
2032.00,1.0488
2031.00,1.0487
2030.00,1.0487
2029.00,1.0488
2028.00,1.0488
2027.00,1.0487
2026.00,1.0485
2025.00,1.0483
2024.00,1.0483
2023.00,1.0484
2022.00,1.0484
2021.00,1.0483
2020.00,1.0481
2019.00,1.0478
2018.00,1.0476
2017.00,1.0473
2016.00,1.0470
2015.00,1.0467
2014.00,1.0462
2013.00,1.0458
2012.00,1.0455
2011.00,1.0451
2010.00,1.0448
2009.00,1.0444
2008.00,1.0441
2007.00,1.0438
2006.00,1.0435
2005.00,1.0434
2004.00,1.0432
2003.00,1.0430
2002.00,1.0427
2001.00,1.0425
2000.00,1.0424
1999.00,1.0424
1998.00,1.0424
1997.00,1.0424
1996.00,1.0422
1995.00,1.0419
1994.00,1.0418
1993.00,1.0417
1992.00,1.0417
1991.00,1.0415
1990.00,1.0413
1989.00,1.0413
1988.00,1.0415
1987.00,1.0418
1986.00,1.0418
1985.00,1.0417
1984.00,1.0415
1983.00,1.0413
1982.00,1.0410
1981.00,1.0408
1980.00,1.0408
1979.00,1.0408
1978.00,1.0410
1977.00,1.0412
1976.00,1.0412
1975.00,1.0410
1974.00,1.0409
1973.00,1.0409
1972.00,1.0411
1971.00,1.0413
1970.00,1.0413
1969.00,1.0412
1968.00,1.0410
1967.00,1.0407
1966.00,1.0404
1965.00,1.0402
1964.00,1.0403
1963.00,1.0404
1962.00,1.0403
1961.00,1.0401
1960.00,1.0397
1959.00,1.0395
1958.00,1.0394
1957.00,1.0394
1956.00,1.0396
1955.00,1.0397
1954.00,1.0399
1953.00,1.0400
1952.00,1.0399
1951.00,1.0395
1950.00,1.0390
1949.00,1.0386
1948.00,1.0384
1947.00,1.0384
1946.00,1.0385
1945.00,1.0385
1944.00,1.0385
1943.00,1.0386
1942.00,1.0386
1941.00,1.0386
1940.00,1.0387
1939.00,1.0389
1938.00,1.0391
1937.00,1.0392
1936.00,1.0392
1935.00,1.0391
1934.00,1.0389
1933.00,1.0388
1932.00,1.0389
1931.00,1.0390
1930.00,1.0391
1929.00,1.0391
1928.00,1.0390
1927.00,1.0389
1926.00,1.0387
1925.00,1.0386
1924.00,1.0385
1923.00,1.0383
1922.00,1.0383
1921.00,1.0383
1920.00,1.0384
1919.00,1.0384
1918.00,1.0383
1917.00,1.0382
1916.00,1.0383
1915.00,1.0385
1914.00,1.0386
1913.00,1.0384
1912.00,1.0382
1911.00,1.0381
1910.00,1.0380
1909.00,1.0379
1908.00,1.0378
1907.00,1.0377
1906.00,1.0377
1905.00,1.0379
1904.00,1.0381
1903.00,1.0381
1902.00,1.0378
1901.00,1.0374
1900.00,1.0372
1899.00,1.0371
1898.00,1.0370
1897.00,1.0371
1896.00,1.0371
1895.00,1.0371
1894.00,1.0370
1893.00,1.0369
1892.00,1.0369
1891.00,1.0370
1890.00,1.0371
1889.00,1.0372
1888.00,1.0370
1887.00,1.0367
1886.00,1.0363
1885.00,1.0359
1884.00,1.0356
1883.00,1.0354
1882.00,1.0352
1881.00,1.0351
1880.00,1.0351
1879.00,1.0352
1878.00,1.0353
1877.00,1.0354
1876.00,1.0354
1875.00,1.0352
1874.00,1.0348
1873.00,1.0342
1872.00,1.0337
1871.00,1.0332
1870.00,1.0328
1869.00,1.0325
1868.00,1.0324
1867.00,1.0325
1866.00,1.0326
1865.00,1.0326
1864.00,1.0326
1863.00,1.0326
1862.00,1.0326
1861.00,1.0325
1860.00,1.0323
1859.00,1.0320
1858.00,1.0317
1857.00,1.0313
1856.00,1.0309
1855.00,1.0306
1854.00,1.0303
1853.00,1.0303
1852.00,1.0303
1851.00,1.0304
1850.00,1.0303
1849.00,1.0302
1848.00,1.0299
1847.00,1.0294
1846.00,1.0290
1845.00,1.0288
1844.00,1.0287
1843.00,1.0285
1842.00,1.0285
1841.00,1.0286
1840.00,1.0289
1839.00,1.0289
1838.00,1.0289
1837.00,1.0288
1836.00,1.0288
1835.00,1.0288
1834.00,1.0286
1833.00,1.0284
1832.00,1.0282
1831.00,1.0283
1830.00,1.0284
1829.00,1.0285
1828.00,1.0285
1827.00,1.0284
1826.00,1.0283
1825.00,1.0281
1824.00,1.0279
1823.00,1.0278
1822.00,1.0278
1821.00,1.0279
1820.00,1.0279
1819.00,1.0279
1818.00,1.0279
1817.00,1.0278
1816.00,1.0278
1815.00,1.0277
1814.00,1.0275
1813.00,1.0274
1812.00,1.0272
1811.00,1.0270
1810.00,1.0267
1809.00,1.0266
1808.00,1.0266
1807.00,1.0266
1806.00,1.0265
1805.00,1.0266
1804.00,1.0267
1803.00,1.0267
1802.00,1.0265
1801.00,1.0263
1800.00,1.0261
1799.00,1.0261
1798.00,1.0262
1797.00,1.0264
1796.00,1.0265
1795.00,1.0263
1794.00,1.0261
1793.00,1.0262
1792.00,1.0266
1791.00,1.0270
1790.00,1.0272
1789.00,1.0274
1788.00,1.0275
1787.00,1.0276
1786.00,1.0278
1785.00,1.0280
1784.00,1.0282
1783.00,1.0284
1782.00,1.0286
1781.00,1.0289
1780.00,1.0293
1779.00,1.0295
1778.00,1.0298
1777.00,1.0303
1776.00,1.0307
1775.00,1.0310
1774.00,1.0313
1773.00,1.0317
1772.00,1.0324
1771.00,1.0330
1770.00,1.0338
1769.00,1.0350
1768.00,1.0365
1767.00,1.0378
1766.00,1.0388
1765.00,1.0400
1764.00,1.0418
1763.00,1.0444
1762.00,1.0476
1761.00,1.0512
1760.00,1.0550
1759.00,1.0589
1758.00,1.0633
1757.00,1.0685
1756.00,1.0745
1755.00,1.0809
1754.00,1.0873
1753.00,1.0939
1752.00,1.1008
1751.00,1.1077
1750.00,1.1138
1749.00,1.1183
1748.00,1.1211
1747.00,1.1221
1746.00,1.1217
1745.00,1.1202
1744.00,1.1178
1743.00,1.1146
1742.00,1.1108
1741.00,1.1065
1740.00,1.1015
1739.00,1.0961
1738.00,1.0910
1737.00,1.0867
1736.00,1.0828
1735.00,1.0785
1734.00,1.0737
1733.00,1.0691
1732.00,1.0654
1731.00,1.0627
1730.00,1.0603
1729.00,1.0581
1728.00,1.0558
1727.00,1.0537
1726.00,1.0519
1725.00,1.0505
1724.00,1.0495
1723.00,1.0485
1722.00,1.0476
1721.00,1.0466
1720.00,1.0459
1719.00,1.0453
1718.00,1.0450
1717.00,1.0449
1716.00,1.0450
1715.00,1.0452
1714.00,1.0453
1713.00,1.0456
1712.00,1.0459
1711.00,1.0459
1710.00,1.0458
1709.00,1.0455
1708.00,1.0453
1707.00,1.0452
1706.00,1.0452
1705.00,1.0454
1704.00,1.0454
1703.00,1.0452
1702.00,1.0449
1701.00,1.0448
1700.00,1.0446
1699.00,1.0437
1698.00,1.0428
1697.00,1.0423
1696.00,1.0422
1695.00,1.0420
1694.00,1.0418
1693.00,1.0417
1692.00,1.0418
1691.00,1.0415
1690.00,1.0408
1689.00,1.0403
1688.00,1.0400
1687.00,1.0400
1686.00,1.0402
1685.00,1.0405
1684.00,1.0406
1683.00,1.0404
1682.00,1.0404
1681.00,1.0409
1680.00,1.0415
1679.00,1.0417
1678.00,1.0417
1677.00,1.0419
1676.00,1.0424
1675.00,1.0431
1674.00,1.0437
1673.00,1.0442
1672.00,1.0449
1671.00,1.0454
1670.00,1.0458
1669.00,1.0460
1668.00,1.0461
1667.00,1.0463
1666.00,1.0465
1665.00,1.0468
1664.00,1.0472
1663.00,1.0477
1662.00,1.0482
1661.00,1.0488
1660.00,1.0493
1659.00,1.0495
1658.00,1.0496
1657.00,1.0498
1656.00,1.0497
1655.00,1.0497
1654.00,1.0501
1653.00,1.0513
1652.00,1.0520
1651.00,1.0520
1650.00,1.0522
1649.00,1.0523
1648.00,1.0523
1647.00,1.0522
1646.00,1.0522
1645.00,1.0522
1644.00,1.0524
1643.00,1.0523
1642.00,1.0521
1641.00,1.0521
1640.00,1.0523
1639.00,1.0524
1638.00,1.0524
1637.00,1.0525
1636.00,1.0531
1635.00,1.0541
1634.00,1.0551
1633.00,1.0563
1632.00,1.0575
1631.00,1.0585
1630.00,1.0593
1629.00,1.0601
1628.00,1.0613
1627.00,1.0625
1626.00,1.0638
1625.00,1.0653
1624.00,1.0670
1623.00,1.0688
1622.00,1.0707
1621.00,1.0726
1620.00,1.0747
1619.00,1.0769
1618.00,1.0796
1617.00,1.0831
1616.00,1.0869
1615.00,1.0905
1614.00,1.0937
1613.00,1.0970
1612.00,1.1003
1611.00,1.1036
1610.00,1.1069
1609.00,1.1101
1608.00,1.1130
1607.00,1.1152
1606.00,1.1171
1605.00,1.1190
1604.00,1.1210
1603.00,1.1231
1602.00,1.1255
1601.00,1.1286
1600.00,1.1323
1599.00,1.1365
1598.00,1.1411
1597.00,1.1465
1596.00,1.1529
1595.00,1.1604
1594.00,1.1689
1593.00,1.1789
1592.00,1.1911
1591.00,1.2065
1590.00,1.2263
1589.00,1.2522
1588.00,1.2857
1587.00,1.3277
1586.00,1.3788
1585.00,1.4386
1584.00,1.5034
1583.00,1.5644
1582.00,1.6080
1581.00,1.6242
1580.00,1.6123
1579.00,1.5779
1578.00,1.5261
1577.00,1.4619
1576.00,1.3963
1575.00,1.3420
1574.00,1.3040
1573.00,1.2785
1572.00,1.2605
1571.00,1.2469
1570.00,1.2373
1569.00,1.2323
1568.00,1.2320
1567.00,1.2360
1566.00,1.2443
1565.00,1.2573
1564.00,1.2745
1563.00,1.2935
1562.00,1.3121
1561.00,1.3284
1560.00,1.3371
1559.00,1.3284
1558.00,1.3026
1557.00,1.2729
1556.00,1.2447
1555.00,1.2169
1554.00,1.1904
1553.00,1.1678
1552.00,1.1500
1551.00,1.1359
1550.00,1.1241
1549.00,1.1144
1548.00,1.1068
1547.00,1.1007
1546.00,1.0956
1545.00,1.0911
1544.00,1.0874
1543.00,1.0845
1542.00,1.0821
1541.00,1.0805
1540.00,1.0796
1539.00,1.0790
1538.00,1.0782
1537.00,1.0771
1536.00,1.0757
1535.00,1.0740
1534.00,1.0723
1533.00,1.0713
1532.00,1.0712
1531.00,1.0717
1530.00,1.0728
1529.00,1.0741
1528.00,1.0755
1527.00,1.0769
1526.00,1.0781
1525.00,1.0794
1524.00,1.0806
1523.00,1.0820
1522.00,1.0842
1521.00,1.0875
1520.00,1.0916
1519.00,1.0958
1518.00,1.1006
1517.00,1.1059
1516.00,1.1113
1515.00,1.1160
1514.00,1.1200
1513.00,1.1230
1512.00,1.1248
1511.00,1.1245
1510.00,1.1225
1509.00,1.1190
1508.00,1.1142
1507.00,1.1089
1506.00,1.1047
1505.00,1.1025
1504.00,1.1016
1503.00,1.1010
1502.00,1.1007
1501.00,1.1009
1500.00,1.1018
1499.00,1.1034
1498.00,1.1058
1497.00,1.1101
1496.00,1.1165
1495.00,1.1244
1494.00,1.1324
1493.00,1.1397
1492.00,1.1452
1491.00,1.1481
1490.00,1.1485
1489.00,1.1475
1488.00,1.1463
1487.00,1.1453
1486.00,1.1453
1485.00,1.1467
1484.00,1.1495
1483.00,1.1533
1482.00,1.1585
1481.00,1.1654
1480.00,1.1741
1479.00,1.1841
1478.00,1.1960
1477.00,1.2108
1476.00,1.2287
1475.00,1.2506
1474.00,1.2797
1473.00,1.3202
1472.00,1.3714
1471.00,1.4272
1470.00,1.4818
1469.00,1.5325
1468.00,1.5763
1467.00,1.6099
1466.00,1.6320
1465.00,1.6440
1464.00,1.6489
1463.00,1.6504
1462.00,1.6519
1461.00,1.6545
1460.00,1.6580
1459.00,1.6625
1458.00,1.6689
1457.00,1.6753
1456.00,1.6780
1455.00,1.6759
1454.00,1.6704
1453.00,1.6610
1452.00,1.6470
1451.00,1.6302
1450.00,1.6134
1449.00,1.5969
1448.00,1.5790
1447.00,1.5591
1446.00,1.5382
1445.00,1.5167
1444.00,1.4944
1443.00,1.4717
1442.00,1.4496
1441.00,1.4289
1440.00,1.4095
1439.00,1.3911
1438.00,1.3721
1437.00,1.3514
1436.00,1.3300
1435.00,1.3101
1434.00,1.2921
1433.00,1.2746
1432.00,1.2569
1431.00,1.2394
1430.00,1.2229
1429.00,1.2079
1428.00,1.1950
1427.00,1.1846
1426.00,1.1759
1425.00,1.1681
1424.00,1.1616
1423.00,1.1570
1422.00,1.1541
1421.00,1.1516
1420.00,1.1488
1419.00,1.1461
1418.00,1.1439
1417.00,1.1422
1416.00,1.1411
1415.00,1.1408
1414.00,1.1408
1413.00,1.1410
1412.00,1.1414
1411.00,1.1424
1410.00,1.1432
1409.00,1.1432
1408.00,1.1421
1407.00,1.1401
1406.00,1.1372
1405.00,1.1332
1404.00,1.1285
1403.00,1.1236
1402.00,1.1190
1401.00,1.1147
1400.00,1.1106
1399.00,1.1074
1398.00,1.1050
1397.00,1.1033
1396.00,1.1020
1395.00,1.1013
1394.00,1.1013
1393.00,1.1020
1392.00,1.1035
1391.00,1.1063
1390.00,1.1108
1389.00,1.1175
1388.00,1.1271
1387.00,1.1399
1386.00,1.1550
1385.00,1.1713
1384.00,1.1885
1383.00,1.2075
1382.00,1.2288
1381.00,1.2523
1380.00,1.2769
1379.00,1.2993
1378.00,1.3155
1377.00,1.3222
1376.00,1.3190
1375.00,1.3070
1374.00,1.2890
1373.00,1.2686
1372.00,1.2496
1371.00,1.2339
1370.00,1.2224
1369.00,1.2150
1368.00,1.2113
1367.00,1.2097
1366.00,1.2077
1365.00,1.2031
1364.00,1.1947
1363.00,1.1836
1362.00,1.1716
1361.00,1.1609
1360.00,1.1523
1359.00,1.1458
1358.00,1.1410
1357.00,1.1374
1356.00,1.1352
1355.00,1.1341
1354.00,1.1337
1353.00,1.1334
1352.00,1.1331
1351.00,1.1330
1350.00,1.1332
1349.00,1.1333
1348.00,1.1331
1347.00,1.1328
1346.00,1.1327
1345.00,1.1327
1344.00,1.1325
1343.00,1.1321
1342.00,1.1312
1341.00,1.1296
1340.00,1.1272
1339.00,1.1243
1338.00,1.1213
1337.00,1.1182
1336.00,1.1145
1335.00,1.1105
1334.00,1.1065
1333.00,1.1032
1332.00,1.1008
1331.00,1.0991
1330.00,1.0979
1329.00,1.0971
1328.00,1.0967
1327.00,1.0970
1326.00,1.0980
1325.00,1.0994
1324.00,1.1009
1323.00,1.1023
1322.00,1.1034
1321.00,1.1046
1320.00,1.1062
1319.00,1.1081
1318.00,1.1099
1317.00,1.1114
1316.00,1.1127
1315.00,1.1142
1314.00,1.1159
1313.00,1.1172
1312.00,1.1182
1311.00,1.1188
1310.00,1.1192
1309.00,1.1196
1308.00,1.1200
1307.00,1.1205
1306.00,1.1211
1305.00,1.1214
1304.00,1.1215
1303.00,1.1212
1302.00,1.1206
1301.00,1.1201
1300.00,1.1194
1299.00,1.1187
1298.00,1.1177
1297.00,1.1163
1296.00,1.1147
1295.00,1.1128
1294.00,1.1108
1293.00,1.1087
1292.00,1.1068
1291.00,1.1051
1290.00,1.1036
1289.00,1.1023
1288.00,1.1013
1287.00,1.1004
1286.00,1.0994
1285.00,1.0979
1284.00,1.0959
1283.00,1.0939
1282.00,1.0923
1281.00,1.0913
1280.00,1.0907
1279.00,1.0903
1278.00,1.0897
1277.00,1.0891
1276.00,1.0887
1275.00,1.0887
1274.00,1.0890
1273.00,1.0893
1272.00,1.0896
1271.00,1.0902
1270.00,1.0910
1269.00,1.0919
1268.00,1.0924
1267.00,1.0926
1266.00,1.0925
1265.00,1.0919
1264.00,1.0908
1263.00,1.0895
1262.00,1.0885
1261.00,1.0879
1260.00,1.0876
1259.00,1.0877
1258.00,1.0883
1257.00,1.0894
1256.00,1.0910
1255.00,1.0926
1254.00,1.0940
1253.00,1.0952
1252.00,1.0963
1251.00,1.0976
1250.00,1.0989
1249.00,1.0997
1248.00,1.1001
1247.00,1.1001
1246.00,1.0997
1245.00,1.0989
1244.00,1.0980
1243.00,1.0975
1242.00,1.0973
1241.00,1.0974
1240.00,1.0971
1239.00,1.0961
1238.00,1.0945
1237.00,1.0927
1236.00,1.0913
1235.00,1.0906
1234.00,1.0904
1233.00,1.0903
1232.00,1.0902
1231.00,1.0901
1230.00,1.0899
1229.00,1.0891
1228.00,1.0876
1227.00,1.0859
1226.00,1.0842
1225.00,1.0826
1224.00,1.0810
1223.00,1.0794
1222.00,1.0780
1221.00,1.0770
1220.00,1.0767
1219.00,1.0771
1218.00,1.0781
1217.00,1.0791
1216.00,1.0799
1215.00,1.0809
1214.00,1.0819
1213.00,1.0828
1212.00,1.0834
1211.00,1.0838
1210.00,1.0843
1209.00,1.0852
1208.00,1.0867
1207.00,1.0888
1206.00,1.0914
1205.00,1.0944
1204.00,1.0977
1203.00,1.1013
1202.00,1.1047
1201.00,1.1074
1200.00,1.1091
1199.00,1.1099
1198.00,1.1102
1197.00,1.1100
1196.00,1.1093
1195.00,1.1082
1194.00,1.1071
1193.00,1.1057
1192.00,1.1040
1191.00,1.1017
1190.00,1.0992
1189.00,1.0965
1188.00,1.0938
1187.00,1.0908
1186.00,1.0874
1185.00,1.0838
1184.00,1.0807
1183.00,1.0788
1182.00,1.0785
1181.00,1.0792
1180.00,1.0803
1179.00,1.0812
1178.00,1.0822
1177.00,1.0837
1176.00,1.0860
1175.00,1.0887
1174.00,1.0915
1173.00,1.0939
1172.00,1.0957
1171.00,1.0968
1170.00,1.0971
1169.00,1.0964
1168.00,1.0952
1167.00,1.0941
1166.00,1.0936
1165.00,1.0935
1164.00,1.0933
1163.00,1.0926
1162.00,1.0911
1161.00,1.0887
1160.00,1.0858
1159.00,1.0828
1158.00,1.0799
1157.00,1.0776
1156.00,1.0755
1155.00,1.0736
1154.00,1.0717
1153.00,1.0697
1152.00,1.0678
1151.00,1.0661
1150.00,1.0644
1149.00,1.0629
1148.00,1.0617
1147.00,1.0610
1146.00,1.0606
1145.00,1.0599
1144.00,1.0589
1143.00,1.0577
1142.00,1.0567
1141.00,1.0563
1140.00,1.0567
1139.00,1.0577
1138.00,1.0589
1137.00,1.0601
1136.00,1.0614
1135.00,1.0627
1134.00,1.0636
1133.00,1.0634
1132.00,1.0619
1131.00,1.0593
1130.00,1.0561
1129.00,1.0526
1128.00,1.0493
1127.00,1.0468
1126.00,1.0451
1125.00,1.0440
1124.00,1.0432
1123.00,1.0429
1122.00,1.0428
1121.00,1.0428
1120.00,1.0427
1119.00,1.0426
1118.00,1.0429
1117.00,1.0441
1116.00,1.0460
1115.00,1.0481
1114.00,1.0494
1113.00,1.0491
1112.00,1.0477
1111.00,1.0457
1110.00,1.0438
1109.00,1.0421
1108.00,1.0408
1107.00,1.0401
1106.00,1.0399
1105.00,1.0399
1104.00,1.0400
1103.00,1.0404
1102.00,1.0412
1101.00,1.0423
1100.00,1.0434
1099.00,1.0445
1098.00,1.0454
1097.00,1.0464
1096.00,1.0473
1095.00,1.0478
1094.00,1.0476
1093.00,1.0464
1092.00,1.0449
1091.00,1.0437
1090.00,1.0429
1089.00,1.0422
1088.00,1.0415
1087.00,1.0410
1086.00,1.0408
1085.00,1.0405
1084.00,1.0404
1083.00,1.0408
1082.00,1.0420
1081.00,1.0436
1080.00,1.0448
1079.00,1.0453
1078.00,1.0453
1077.00,1.0453
1076.00,1.0452
1075.00,1.0449
1074.00,1.0439
1073.00,1.0421
1072.00,1.0395
1071.00,1.0365
1070.00,1.0336
1069.00,1.0307
1068.00,1.0283
1067.00,1.0262
1066.00,1.0245
1065.00,1.0232
1064.00,1.0223
1063.00,1.0218
1062.00,1.0215
1061.00,1.0205
1060.00,1.0190
1059.00,1.0176
1058.00,1.0167
1057.00,1.0163
1056.00,1.0158
1055.00,1.0152
1054.00,1.0150
1053.00,1.0154
1052.00,1.0162
1051.00,1.0169
1050.00,1.0177
1049.00,1.0182
1048.00,1.0185
1047.00,1.0183
1046.00,1.0178
1045.00,1.0171
1044.00,1.0162
1043.00,1.0154
1042.00,1.0149
1041.00,1.0149
1040.00,1.0150
1039.00,1.0150
1038.00,1.0145
1037.00,1.0138
1036.00,1.0133
1035.00,1.0133
1034.00,1.0140
1033.00,1.0153
1032.00,1.0174
1031.00,1.0202
1030.00,1.0236
1029.00,1.0269
1028.00,1.0293
1027.00,1.0300
1026.00,1.0290
1025.00,1.0265
1024.00,1.0233
1023.00,1.0199
1022.00,1.0168
1021.00,1.0142
1020.00,1.0124
1019.00,1.0116
1018.00,1.0117
1017.00,1.0119
1016.00,1.0113
1015.00,1.0099
1014.00,1.0083
1013.00,1.0074
1012.00,1.0081
1011.00,1.0100
1010.00,1.0119
1009.00,1.0126
1008.00,1.0113
1007.00,1.0089
1006.00,1.0062
1005.00,1.0041
1004.00,1.0031
1003.00,1.0030
1002.00,1.0034
1001.00,1.0038
1000.00,1.0038
999.00,1.0039
998.00,1.0042
997.00,1.0049
996.00,1.0059
995.00,1.0068
994.00,1.0074
993.00,1.0073
992.00,1.0066
991.00,1.0058
990.00,1.0058
989.00,1.0066
988.00,1.0080
987.00,1.0097
986.00,1.0116
985.00,1.0137
984.00,1.0162
983.00,1.0190
982.00,1.0224
981.00,1.0263
980.00,1.0304
979.00,1.0342
978.00,1.0377
977.00,1.0413
976.00,1.0453
975.00,1.0496
974.00,1.0538
973.00,1.0578
972.00,1.0615
971.00,1.0651
970.00,1.0686
969.00,1.0714
968.00,1.0729
967.00,1.0732
966.00,1.0725
965.00,1.0715
964.00,1.0701
963.00,1.0683
962.00,1.0660
961.00,1.0632
960.00,1.0601
959.00,1.0565
958.00,1.0523
957.00,1.0474
956.00,1.0420
955.00,1.0366
954.00,1.0312
953.00,1.0256
952.00,1.0196
951.00,1.0139
950.00,1.0091
949.00,1.0054
948.00,1.0027
947.00,1.0009
946.00,0.9995
945.00,0.9985
944.00,0.9975
943.00,0.9969
942.00,0.9968
941.00,0.9972
940.00,0.9979
939.00,0.9984
938.00,0.9985
937.00,0.9982
936.00,0.9977
935.00,0.9970
934.00,0.9963
933.00,0.9957
932.00,0.9954
931.00,0.9955
930.00,0.9958
929.00,0.9961
928.00,0.9963
927.00,0.9967
926.00,0.9978
925.00,0.9996
924.00,1.0016
923.00,1.0035
922.00,1.0052
921.00,1.0067
920.00,1.0079
919.00,1.0080
918.00,1.0065
917.00,1.0038
916.00,1.0009
915.00,0.9986
914.00,0.9969
913.00,0.9955
912.00,0.9942
911.00,0.9931
910.00,0.9923
909.00,0.9915
908.00,0.9904
907.00,0.9891
906.00,0.9879
905.00,0.9870
904.00,0.9866
903.00,0.9865
902.00,0.9862
901.00,0.9856
900.00,0.9853
899.00,0.9857
898.00,0.9865
897.00,0.9870
896.00,0.9867
895.00,0.9861
894.00,0.9860
893.00,0.9865
892.00,0.9873
891.00,0.9880
890.00,0.9885
889.00,0.9886
888.00,0.9881
887.00,0.9873
886.00,0.9864
885.00,0.9855
884.00,0.9844
883.00,0.9832
882.00,0.9821
881.00,0.9814
880.00,0.9811
879.00,0.9810
878.00,0.9806
877.00,0.9802
876.00,0.9802
875.00,0.9810
874.00,0.9823
873.00,0.9833
872.00,0.9837
871.00,0.9836
870.00,0.9834
869.00,0.9833
868.00,0.9834
867.00,0.9841
866.00,0.9851
865.00,0.9862
864.00,0.9872
863.00,0.9879
862.00,0.9883
861.00,0.9878
860.00,0.9864
859.00,0.9840
858.00,0.9811
857.00,0.9782
856.00,0.9755
855.00,0.9735
854.00,0.9721
853.00,0.9711
852.00,0.9707
851.00,0.9708
850.00,0.9712
849.00,0.9720
848.00,0.9729
847.00,0.9738
846.00,0.9743
845.00,0.9740
844.00,0.9731
843.00,0.9727
842.00,0.9740
841.00,0.9772
840.00,0.9817
839.00,0.9869
838.00,0.9923
837.00,0.9967
836.00,0.9990
835.00,0.9986
834.00,0.9961
833.00,0.9920
832.00,0.9871
831.00,0.9817
830.00,0.9767
829.00,0.9727
828.00,0.9700
827.00,0.9686
826.00,0.9685
825.00,0.9698
824.00,0.9720
823.00,0.9745
822.00,0.9767
821.00,0.9785
820.00,0.9800
819.00,0.9812
818.00,0.9820
817.00,0.9819
816.00,0.9809
815.00,0.9795
814.00,0.9781
813.00,0.9770
812.00,0.9762
811.00,0.9754
810.00,0.9746
809.00,0.9736
808.00,0.9723
807.00,0.9707
806.00,0.9689
805.00,0.9672
804.00,0.9658
803.00,0.9647
802.00,0.9639
801.00,0.9634
800.00,0.9634
799.00,0.9637
798.00,0.9636
797.00,0.9624
796.00,0.9606
795.00,0.9591
794.00,0.9588
793.00,0.9598
792.00,0.9618
791.00,0.9642
790.00,0.9669
789.00,0.9695
788.00,0.9713
787.00,0.9722
786.00,0.9725
785.00,0.9730
784.00,0.9743
783.00,0.9761
782.00,0.9779
781.00,0.9789
780.00,0.9792
779.00,0.9794
778.00,0.9800
777.00,0.9811
776.00,0.9827
775.00,0.9841
774.00,0.9851
773.00,0.9853
772.00,0.9847
771.00,0.9839
770.00,0.9834
769.00,0.9835
768.00,0.9841
767.00,0.9848
766.00,0.9855
765.00,0.9866
764.00,0.9885
763.00,0.9909
762.00,0.9934
761.00,0.9956
760.00,0.9974
759.00,0.9986
758.00,0.9992
757.00,0.9996
756.00,1.0002
755.00,1.0012
754.00,1.0019
753.00,1.0019
752.00,1.0012
751.00,1.0005
750.00,0.9999
749.00,0.9992
748.00,0.9982
747.00,0.9970
746.00,0.9958
745.00,0.9948
744.00,0.9944
743.00,0.9949
742.00,0.9962
741.00,0.9977
740.00,0.9990
739.00,1.0002
738.00,1.0015
737.00,1.0029
736.00,1.0043
735.00,1.0059
734.00,1.0077
733.00,1.0097
732.00,1.0121
731.00,1.0153
730.00,1.0199
729.00,1.0258
728.00,1.0326
727.00,1.0403
726.00,1.0490
725.00,1.0585
724.00,1.0680
723.00,1.0759
722.00,1.0802
721.00,1.0784
720.00,1.0697
719.00,1.0561
718.00,1.0416
717.00,1.0288
716.00,1.0185
715.00,1.0099
714.00,1.0024
713.00,0.9958
712.00,0.9902
711.00,0.9854
710.00,0.9818
709.00,0.9794
708.00,0.9777
707.00,0.9757
706.00,0.9728
705.00,0.9693
704.00,0.9659
703.00,0.9631
702.00,0.9608
701.00,0.9589
700.00,0.9570
699.00,0.9550
698.00,0.9531
697.00,0.9515
696.00,0.9506
695.00,0.9503
694.00,0.9501
693.00,0.9501
692.00,0.9503
691.00,0.9508
690.00,0.9514
689.00,0.9510
688.00,0.9494
687.00,0.9465
686.00,0.9428
685.00,0.9388
684.00,0.9354
683.00,0.9333
682.00,0.9321
681.00,0.9312
680.00,0.9301
679.00,0.9288
678.00,0.9281
677.00,0.9283
676.00,0.9294
675.00,0.9310
674.00,0.9320
673.00,0.9323
672.00,0.9320
671.00,0.9312
670.00,0.9301
669.00,0.9291
668.00,0.9297
667.00,0.9321
666.00,0.9352
665.00,0.9376
664.00,0.9388
663.00,0.9391
662.00,0.9394
661.00,0.9401
660.00,0.9411
659.00,0.9419
658.00,0.9425
657.00,0.9432
656.00,0.9440
655.00,0.9447
654.00,0.9450
653.00,0.9446
652.00,0.9440
651.00,0.9435
650.00,0.9433
649.00,0.9434
648.00,0.9440
647.00,0.9449
646.00,0.9459
645.00,0.9471
644.00,0.9484
643.00,0.9497
642.00,0.9505
641.00,0.9508
640.00,0.9515
639.00,0.9533
638.00,0.9560
637.00,0.9589
636.00,0.9610
635.00,0.9618
634.00,0.9620
633.00,0.9621
632.00,0.9625
631.00,0.9629
630.00,0.9630
629.00,0.9629
628.00,0.9632
627.00,0.9638
626.00,0.9644
625.00,0.9650
624.00,0.9659
623.00,0.9677
622.00,0.9702
621.00,0.9726
620.00,0.9745
619.00,0.9756
618.00,0.9761
617.00,0.9768
616.00,0.9783
615.00,0.9800
614.00,0.9802
613.00,0.9788
612.00,0.9772
611.00,0.9772
610.00,0.9781
609.00,0.9783
608.00,0.9773
607.00,0.9757
606.00,0.9742
605.00,0.9723
604.00,0.9702
603.00,0.9688
602.00,0.9688
601.00,0.9695
600.00,0.9701
599.00,0.9703
598.00,0.9703
597.00,0.9700
596.00,0.9701
595.00,0.9715
594.00,0.9744
593.00,0.9770
592.00,0.9774
591.00,0.9759
590.00,0.9744
589.00,0.9746
588.00,0.9768
587.00,0.9799
586.00,0.9827
585.00,0.9842
584.00,0.9847
583.00,0.9853
582.00,0.9871
581.00,0.9900
580.00,0.9935
579.00,0.9974
578.00,1.0015
577.00,1.0053
576.00,1.0080
575.00,1.0096
574.00,1.0111
573.00,1.0123
572.00,1.0124
571.00,1.0113
570.00,1.0098
569.00,1.0091
568.00,1.0096
567.00,1.0107
566.00,1.0115
565.00,1.0110
564.00,1.0086
563.00,1.0047
562.00,1.0013
561.00,1.0003
560.00,1.0020
559.00,1.0050
558.00,1.0074
557.00,1.0081
556.00,1.0074
555.00,1.0065
554.00,1.0069
553.00,1.0084
552.00,1.0100
551.00,1.0111
550.00,1.0119
