Created as New Dataset,Sample 005 By Laboratory Date Friday, November 21 2025
cm-1,A
4000.00,1.1572
3999.00,1.1571
3998.00,1.1570
3997.00,1.1570
3996.00,1.1570
3995.00,1.1568
3994.00,1.1565
3993.00,1.1562
3992.00,1.1561
3991.00,1.1560
3990.00,1.1559
3989.00,1.1557
3988.00,1.1555
3987.00,1.1555
3986.00,1.1555
3985.00,1.1557
3984.00,1.1557
3983.00,1.1555
3982.00,1.1551
3981.00,1.1545
3980.00,1.1539
3979.00,1.1534
3978.00,1.1531
3977.00,1.1530
3976.00,1.1530
3975.00,1.1531
3974.00,1.1532
3973.00,1.1535
3972.00,1.1537
3971.00,1.1538
3970.00,1.1537
3969.00,1.1536
3968.00,1.1536
3967.00,1.1535
3966.00,1.1532
3965.00,1.1527
3964.00,1.1522
3963.00,1.1519
3962.00,1.1518
3961.00,1.1520
3960.00,1.1522
3959.00,1.1521
3958.00,1.1518
3957.00,1.1514
3956.00,1.1511
3955.00,1.1509
3954.00,1.1508
3953.00,1.1509
3952.00,1.1512
3951.00,1.1515
3950.00,1.1517
3949.00,1.1517
3948.00,1.1517
3947.00,1.1520
3946.00,1.1524
3945.00,1.1528
3944.00,1.1529
3943.00,1.1529
3942.00,1.1526
3941.00,1.1523
3940.00,1.1518
3939.00,1.1514
3938.00,1.1509
3937.00,1.1505
3936.00,1.1502
3935.00,1.1502
3934.00,1.1503
3933.00,1.1504
3932.00,1.1505
3931.00,1.1506
3930.00,1.1507
3929.00,1.1509
3928.00,1.1511
3927.00,1.1513
3926.00,1.1512
3925.00,1.1511
3924.00,1.1510
3923.00,1.1510
3922.00,1.1513
3921.00,1.1515
3920.00,1.1516
3919.00,1.1514
3918.00,1.1511
3917.00,1.1508
3916.00,1.1506
3915.00,1.1505
3914.00,1.1506
3913.00,1.1506
3912.00,1.1504
3911.00,1.1499
3910.00,1.1492
3909.00,1.1487
3908.00,1.1485
3907.00,1.1488
3906.00,1.1494
3905.00,1.1501
3904.00,1.1509
3903.00,1.1519
3902.00,1.1530
3901.00,1.1540
3900.00,1.1545
3899.00,1.1541
3898.00,1.1531
3897.00,1.1520
3896.00,1.1510
3895.00,1.1505
3894.00,1.1504
3893.00,1.1503
3892.00,1.1500
3891.00,1.1496
3890.00,1.1495
3889.00,1.1496
3888.00,1.1500
3887.00,1.1502
3886.00,1.1504
3885.00,1.1505
3884.00,1.1506
3883.00,1.1509
3882.00,1.1510
3881.00,1.1508
3880.00,1.1506
3879.00,1.1503
3878.00,1.1503
3877.00,1.1505
3876.00,1.1506
3875.00,1.1504
3874.00,1.1501
3873.00,1.1500
3872.00,1.1504
3871.00,1.1510
3870.00,1.1513
3869.00,1.1513
3868.00,1.1513
3867.00,1.1516
3866.00,1.1518
3865.00,1.1518
3864.00,1.1515
3863.00,1.1509
3862.00,1.1504
3861.00,1.1501
3860.00,1.1498
3859.00,1.1497
3858.00,1.1497
3857.00,1.1499
3856.00,1.1504
3855.00,1.1511
3854.00,1.1516
3853.00,1.1519
3852.00,1.1520
3851.00,1.1521
3850.00,1.1517
3849.00,1.1510
3848.00,1.1501
3847.00,1.1491
3846.00,1.1483
3845.00,1.1478
3844.00,1.1477
3843.00,1.1481
3842.00,1.1489
3841.00,1.1498
3840.00,1.1503
3839.00,1.1504
3838.00,1.1500
3837.00,1.1497
3836.00,1.1497
3835.00,1.1496
3834.00,1.1494
3833.00,1.1487
3832.00,1.1477
3831.00,1.1468
3830.00,1.1463
3829.00,1.1461
3828.00,1.1461
3827.00,1.1459
3826.00,1.1457
3825.00,1.1458
3824.00,1.1463
3823.00,1.1470
3822.00,1.1476
3821.00,1.1478
3820.00,1.1479
3819.00,1.1483
3818.00,1.1488
3817.00,1.1491
3816.00,1.1488
3815.00,1.1483
3814.00,1.1477
3813.00,1.1472
3812.00,1.1466
3811.00,1.1459
3810.00,1.1453
3809.00,1.1449
3808.00,1.1446
3807.00,1.1443
3806.00,1.1444
3805.00,1.1451
3804.00,1.1459
3803.00,1.1465
3802.00,1.1465
3801.00,1.1462
3800.00,1.1462
3799.00,1.1465
3798.00,1.1465
3797.00,1.1461
3796.00,1.1453
3795.00,1.1444
3794.00,1.1437
3793.00,1.1431
3792.00,1.1425
3791.00,1.1417
3790.00,1.1410
3789.00,1.1403
3788.00,1.1397
3787.00,1.1392
3786.00,1.1390
3785.00,1.1391
3784.00,1.1393
3783.00,1.1396
3782.00,1.1400
3781.00,1.1403
3780.00,1.1404
3779.00,1.1403
3778.00,1.1400
3777.00,1.1398
3776.00,1.1396
3775.00,1.1394
3774.00,1.1393
3773.00,1.1394
3772.00,1.1397
3771.00,1.1399
3770.00,1.1399
3769.00,1.1400
3768.00,1.1402
3767.00,1.1404
3766.00,1.1404
3765.00,1.1401
3764.00,1.1398
3763.00,1.1397
3762.00,1.1398
3761.00,1.1397
3760.00,1.1395
3759.00,1.1392
3758.00,1.1393
3757.00,1.1398
3756.00,1.1406
3755.00,1.1415
3754.00,1.1419
3753.00,1.1420
3752.00,1.1421
3751.00,1.1426
3750.00,1.1435
3749.00,1.1447
3748.00,1.1458
3747.00,1.1469
3746.00,1.1475
3745.00,1.1474
3744.00,1.1466
3743.00,1.1459
3742.00,1.1454
3741.00,1.1448
3740.00,1.1439
3739.00,1.1429
3738.00,1.1421
3737.00,1.1417
3736.00,1.1416
3735.00,1.1415
3734.00,1.1415
3733.00,1.1416
3732.00,1.1415
3731.00,1.1413
3730.00,1.1409
3729.00,1.1403
3728.00,1.1394
3727.00,1.1386
3726.00,1.1381
3725.00,1.1380
3724.00,1.1381
3723.00,1.1379
3722.00,1.1375
3721.00,1.1369
3720.00,1.1364
3719.00,1.1361
3718.00,1.1359
3717.00,1.1358
3716.00,1.1358
3715.00,1.1361
3714.00,1.1365
3713.00,1.1369
3712.00,1.1372
3711.00,1.1375
3710.00,1.1379
3709.00,1.1380
3708.00,1.1377
3707.00,1.1371
3706.00,1.1364
3705.00,1.1360
3704.00,1.1359
3703.00,1.1360
3702.00,1.1357
3701.00,1.1353
3700.00,1.1350
3699.00,1.1351
3698.00,1.1352
3697.00,1.1352
3696.00,1.1348
3695.00,1.1344
3694.00,1.1343
3693.00,1.1346
3692.00,1.1354
3691.00,1.1364
3690.00,1.1372
3689.00,1.1377
3688.00,1.1378
3687.00,1.1376
3686.00,1.1373
3685.00,1.1370
3684.00,1.1367
3683.00,1.1363
3682.00,1.1361
3681.00,1.1359
3680.00,1.1357
3679.00,1.1358
3678.00,1.1364
3677.00,1.1374
3676.00,1.1385
3675.00,1.1394
3674.00,1.1402
3673.00,1.1409
3672.00,1.1415
3671.00,1.1416
3670.00,1.1414
3669.00,1.1409
3668.00,1.1403
3667.00,1.1398
3666.00,1.1392
3665.00,1.1385
3664.00,1.1375
3663.00,1.1365
3662.00,1.1357
3661.00,1.1353
3660.00,1.1355
3659.00,1.1364
3658.00,1.1374
3657.00,1.1384
3656.00,1.1391
3655.00,1.1399
3654.00,1.1411
3653.00,1.1426
3652.00,1.1443
3651.00,1.1457
3650.00,1.1470
3649.00,1.1479
3648.00,1.1484
3647.00,1.1482
3646.00,1.1474
3645.00,1.1464
3644.00,1.1454
3643.00,1.1443
3642.00,1.1431
3641.00,1.1417
3640.00,1.1405
3639.00,1.1394
3638.00,1.1387
3637.00,1.1382
3636.00,1.1380
3635.00,1.1380
3634.00,1.1382
3633.00,1.1386
3632.00,1.1394
3631.00,1.1404
3630.00,1.1413
3629.00,1.1420
3628.00,1.1426
3627.00,1.1432
3626.00,1.1439
3625.00,1.1441
3624.00,1.1439
3623.00,1.1432
3622.00,1.1426
3621.00,1.1421
3620.00,1.1420
3619.00,1.1419
3618.00,1.1420
3617.00,1.1421
3616.00,1.1421
3615.00,1.1419
3614.00,1.1414
3613.00,1.1406
3612.00,1.1397
3611.00,1.1391
3610.00,1.1389
3609.00,1.1389
3608.00,1.1389
3607.00,1.1389
3606.00,1.1387
3605.00,1.1385
3604.00,1.1381
3603.00,1.1376
3602.00,1.1370
3601.00,1.1364
3600.00,1.1359
3599.00,1.1356
3598.00,1.1354
3597.00,1.1353
3596.00,1.1353
3595.00,1.1353
3594.00,1.1352
3593.00,1.1351
3592.00,1.1351
3591.00,1.1353
3590.00,1.1358
3589.00,1.1363
3588.00,1.1364
3587.00,1.1363
3586.00,1.1359
3585.00,1.1353
3584.00,1.1349
3583.00,1.1345
3582.00,1.1342
3581.00,1.1339
3580.00,1.1334
3579.00,1.1328
3578.00,1.1321
3577.00,1.1316
3576.00,1.1316
3575.00,1.1319
3574.00,1.1323
3573.00,1.1325
3572.00,1.1327
3571.00,1.1328
3570.00,1.1332
3569.00,1.1336
3568.00,1.1341
3567.00,1.1346
3566.00,1.1348
3565.00,1.1349
3564.00,1.1348
3563.00,1.1347
3562.00,1.1346
3561.00,1.1346
3560.00,1.1343
3559.00,1.1336
3558.00,1.1327
3557.00,1.1318
3556.00,1.1312
3555.00,1.1311
3554.00,1.1312
3553.00,1.1315
3552.00,1.1318
3551.00,1.1322
3550.00,1.1327
3549.00,1.1332
3548.00,1.1337
3547.00,1.1339
3546.00,1.1339
3545.00,1.1339
3544.00,1.1339
3543.00,1.1339
3542.00,1.1340
3541.00,1.1340
3540.00,1.1339
3539.00,1.1337
3538.00,1.1335
3537.00,1.1331
3536.00,1.1327
3535.00,1.1326
3534.00,1.1328
3533.00,1.1331
3532.00,1.1335
3531.00,1.1338
3530.00,1.1340
3529.00,1.1341
3528.00,1.1342
3527.00,1.1343
3526.00,1.1344
3525.00,1.1345
3524.00,1.1342
3523.00,1.1338
3522.00,1.1336
3521.00,1.1339
3520.00,1.1346
3519.00,1.1351
3518.00,1.1352
3517.00,1.1350
3516.00,1.1348
3515.00,1.1348
3514.00,1.1351
3513.00,1.1355
3512.00,1.1356
3511.00,1.1357
3510.00,1.1357
3509.00,1.1358
3508.00,1.1361
3507.00,1.1364
3506.00,1.1368
3505.00,1.1370
3504.00,1.1372
3503.00,1.1375
3502.00,1.1378
3501.00,1.1382
3500.00,1.1383
3499.00,1.1383
3498.00,1.1385
3497.00,1.1388
3496.00,1.1391
3495.00,1.1392
3494.00,1.1391
3493.00,1.1390
3492.00,1.1394
3491.00,1.1401
3490.00,1.1408
3489.00,1.1413
3488.00,1.1415
3487.00,1.1415
3486.00,1.1415
3485.00,1.1416
3484.00,1.1416
3483.00,1.1418
3482.00,1.1421
3481.00,1.1424
3480.00,1.1428
3479.00,1.1432
3478.00,1.1435
3477.00,1.1437
3476.00,1.1438
3475.00,1.1438
3474.00,1.1438
3473.00,1.1440
3472.00,1.1442
3471.00,1.1444
3470.00,1.1444
3469.00,1.1443
3468.00,1.1440
3467.00,1.1440
3466.00,1.1443
3465.00,1.1449
3464.00,1.1455
3463.00,1.1458
3462.00,1.1460
3461.00,1.1462
3460.00,1.1466
3459.00,1.1470
3458.00,1.1474
3457.00,1.1475
3456.00,1.1476
3455.00,1.1477
3454.00,1.1481
3453.00,1.1486
3452.00,1.1489
3451.00,1.1490
3450.00,1.1488
3449.00,1.1487
3448.00,1.1488
3447.00,1.1491
3446.00,1.1496
3445.00,1.1502
3444.00,1.1508
3443.00,1.1512
3442.00,1.1516
3441.00,1.1521
3440.00,1.1526
3439.00,1.1530
3438.00,1.1533
3437.00,1.1535
3436.00,1.1538
3435.00,1.1542
3434.00,1.1545
3433.00,1.1546
3432.00,1.1547
3431.00,1.1549
3430.00,1.1552
3429.00,1.1557
3428.00,1.1563
3427.00,1.1570
3426.00,1.1576
3425.00,1.1582
3424.00,1.1587
3423.00,1.1589
3422.00,1.1589
3421.00,1.1590
3420.00,1.1594
3419.00,1.1600
3418.00,1.1608
3417.00,1.1614
3416.00,1.1618
3415.00,1.1621
3414.00,1.1626
3413.00,1.1633
3412.00,1.1639
3411.00,1.1644
3410.00,1.1648
3409.00,1.1652
3408.00,1.1655
3407.00,1.1658
3406.00,1.1663
3405.00,1.1669
3404.00,1.1674
3403.00,1.1677
3402.00,1.1678
3401.00,1.1681
3400.00,1.1686
3399.00,1.1693
3398.00,1.1699
3397.00,1.1703
3396.00,1.1705
3395.00,1.1707
3394.00,1.1710
3393.00,1.1714
3392.00,1.1717
3391.00,1.1719
3390.00,1.1721
3389.00,1.1723
3388.00,1.1725
3387.00,1.1729
3386.00,1.1733
3385.00,1.1738
3384.00,1.1744
3383.00,1.1749
3382.00,1.1755
3381.00,1.1761
3380.00,1.1765
3379.00,1.1768
3378.00,1.1768
3377.00,1.1768
3376.00,1.1769
3375.00,1.1772
3374.00,1.1778
3373.00,1.1785
3372.00,1.1791
3371.00,1.1797
3370.00,1.1802
3369.00,1.1809
3368.00,1.1816
3367.00,1.1824
3366.00,1.1832
3365.00,1.1837
3364.00,1.1839
3363.00,1.1839
3362.00,1.1840
3361.00,1.1843
3360.00,1.1847
3359.00,1.1851
3358.00,1.1854
3357.00,1.1857
3356.00,1.1862
3355.00,1.1868
3354.00,1.1874
3353.00,1.1879
3352.00,1.1882
3351.00,1.1883
3350.00,1.1883
3349.00,1.1886
3348.00,1.1889
3347.00,1.1892
3346.00,1.1894
3345.00,1.1895
3344.00,1.1896
3343.00,1.1899
3342.00,1.1901
3341.00,1.1903
3340.00,1.1907
3339.00,1.1914
3338.00,1.1921
3337.00,1.1927
3336.00,1.1928
3335.00,1.1925
3334.00,1.1920
3333.00,1.1915
3332.00,1.1911
3331.00,1.1910
3330.00,1.1910
3329.00,1.1913
3328.00,1.1917
3327.00,1.1920
3326.00,1.1921
3325.00,1.1922
3324.00,1.1922
3323.00,1.1923
3322.00,1.1922
3321.00,1.1918
3320.00,1.1912
3319.00,1.1906
3318.00,1.1904
3317.00,1.1905
3316.00,1.1906
3315.00,1.1905
3314.00,1.1904
3313.00,1.1903
3312.00,1.1900
3311.00,1.1896
3310.00,1.1890
3309.00,1.1885
3308.00,1.1882
3307.00,1.1882
3306.00,1.1883
3305.00,1.1885
3304.00,1.1884
3303.00,1.1881
3302.00,1.1877
3301.00,1.1875
3300.00,1.1876
3299.00,1.1876
3298.00,1.1874
3297.00,1.1869
3296.00,1.1864
3295.00,1.1860
3294.00,1.1855
3293.00,1.1850
3292.00,1.1845
3291.00,1.1841
3290.00,1.1838
3289.00,1.1836
3288.00,1.1835
3287.00,1.1834
3286.00,1.1833
3285.00,1.1833
3284.00,1.1832
3283.00,1.1833
3282.00,1.1834
3281.00,1.1835
3280.00,1.1835
3279.00,1.1835
3278.00,1.1835
3277.00,1.1836
3276.00,1.1838
3275.00,1.1841
3274.00,1.1843
3273.00,1.1843
3272.00,1.1841
3271.00,1.1840
3270.00,1.1842
3269.00,1.1846
3268.00,1.1849
3267.00,1.1851
3266.00,1.1850
3265.00,1.1851
3264.00,1.1853
3263.00,1.1855
3262.00,1.1855
3261.00,1.1851
3260.00,1.1846
3259.00,1.1845
3258.00,1.1847
3257.00,1.1850
3256.00,1.1852
3255.00,1.1851
3254.00,1.1848
3253.00,1.1845
3252.00,1.1842
3251.00,1.1840
3250.00,1.1839
3249.00,1.1838
3248.00,1.1839
3247.00,1.1840
3246.00,1.1842
3245.00,1.1843
3244.00,1.1843
3243.00,1.1842
3242.00,1.1841
3241.00,1.1840
3240.00,1.1837
3239.00,1.1834
3238.00,1.1832
3237.00,1.1831
3236.00,1.1830
3235.00,1.1830
3234.00,1.1829
3233.00,1.1829
3232.00,1.1828
3231.00,1.1826
3230.00,1.1823
3229.00,1.1819
3228.00,1.1815
3227.00,1.1812
3226.00,1.1810
3225.00,1.1809
3224.00,1.1807
3223.00,1.1806
3222.00,1.1803
3221.00,1.1800
3220.00,1.1797
3219.00,1.1794
3218.00,1.1791
3217.00,1.1788
3216.00,1.1784
3215.00,1.1779
3214.00,1.1773
3213.00,1.1769
3212.00,1.1768
3211.00,1.1769
3210.00,1.1770
3209.00,1.1766
3208.00,1.1760
3207.00,1.1753
3206.00,1.1747
3205.00,1.1744
3204.00,1.1741
3203.00,1.1737
3202.00,1.1734
3201.00,1.1731
3200.00,1.1729
3199.00,1.1726
3198.00,1.1723
3197.00,1.1721
3196.00,1.1719
3195.00,1.1716
3194.00,1.1712
3193.00,1.1707
3192.00,1.1699
3191.00,1.1691
3190.00,1.1684
3189.00,1.1680
3188.00,1.1678
3187.00,1.1677
3186.00,1.1676
3185.00,1.1674
3184.00,1.1670
3183.00,1.1665
3182.00,1.1662
3181.00,1.1661
3180.00,1.1660
3179.00,1.1660
3178.00,1.1658
3177.00,1.1654
3176.00,1.1648
3175.00,1.1641
3174.00,1.1637
3173.00,1.1634
3172.00,1.1631
3171.00,1.1627
3170.00,1.1621
3169.00,1.1616
3168.00,1.1612
3167.00,1.1609
3166.00,1.1607
3165.00,1.1604
3164.00,1.1598
3163.00,1.1591
3162.00,1.1583
3161.00,1.1579
3160.00,1.1576
3159.00,1.1574
3158.00,1.1570
3157.00,1.1566
3156.00,1.1563
3155.00,1.1562
3154.00,1.1562
3153.00,1.1562
3152.00,1.1559
3151.00,1.1554
3150.00,1.1548
3149.00,1.1543
3148.00,1.1538
3147.00,1.1535
3146.00,1.1533
3145.00,1.1531
3144.00,1.1531
3143.00,1.1529
3142.00,1.1527
3141.00,1.1525
3140.00,1.1522
3139.00,1.1519
3138.00,1.1516
3137.00,1.1514
3136.00,1.1511
3135.00,1.1508
3134.00,1.1506
3133.00,1.1507
3132.00,1.1508
3131.00,1.1507
3130.00,1.1504
3129.00,1.1502
3128.00,1.1502
3127.00,1.1503
3126.00,1.1504
3125.00,1.1507
3124.00,1.1509
3123.00,1.1513
3122.00,1.1515
3121.00,1.1517
3120.00,1.1517
3119.00,1.1516
3118.00,1.1514
3117.00,1.1513
3116.00,1.1513
3115.00,1.1513
3114.00,1.1515
3113.00,1.1517
3112.00,1.1518
3111.00,1.1519
3110.00,1.1519
3109.00,1.1520
3108.00,1.1521
3107.00,1.1522
3106.00,1.1522
3105.00,1.1524
3104.00,1.1526
3103.00,1.1528
3102.00,1.1530
3101.00,1.1531
3100.00,1.1534
3099.00,1.1539
3098.00,1.1544
3097.00,1.1551
3096.00,1.1557
3095.00,1.1564
3094.00,1.1569
3093.00,1.1573
3092.00,1.1577
3091.00,1.1582
3090.00,1.1587
3089.00,1.1594
3088.00,1.1601
3087.00,1.1609
3086.00,1.1617
3085.00,1.1625
3084.00,1.1635
3083.00,1.1645
3082.00,1.1656
3081.00,1.1667
3080.00,1.1676
3079.00,1.1686
3078.00,1.1699
3077.00,1.1715
3076.00,1.1731
3075.00,1.1745
3074.00,1.1756
3073.00,1.1768
3072.00,1.1783
3071.00,1.1799
3070.00,1.1814
3069.00,1.1827
3068.00,1.1838
3067.00,1.1850
3066.00,1.1862
3065.00,1.1875
3064.00,1.1886
3063.00,1.1894
3062.00,1.1899
3061.00,1.1904
3060.00,1.1910
3059.00,1.1919
3058.00,1.1929
3057.00,1.1939
3056.00,1.1946
3055.00,1.1951
3054.00,1.1956
3053.00,1.1961
3052.00,1.1967
3051.00,1.1973
3050.00,1.1982
3049.00,1.1992
3048.00,1.2002
3047.00,1.2010
3046.00,1.2017
3045.00,1.2026
3044.00,1.2037
3043.00,1.2048
3042.00,1.2056
3041.00,1.2062
3040.00,1.2067
3039.00,1.2072
3038.00,1.2079
3037.00,1.2088
3036.00,1.2098
3035.00,1.2110
3034.00,1.2121
3033.00,1.2132
3032.00,1.2144
3031.00,1.2156
3030.00,1.2171
3029.00,1.2190
3028.00,1.2212
3027.00,1.2234
3026.00,1.2254
3025.00,1.2272
3024.00,1.2290
3023.00,1.2310
3022.00,1.2334
3021.00,1.2358
3020.00,1.2381
3019.00,1.2403
3018.00,1.2427
3017.00,1.2452
3016.00,1.2480
3015.00,1.2510
3014.00,1.2539
3013.00,1.2569
3012.00,1.2599
3011.00,1.2629
3010.00,1.2659
3009.00,1.2687
3008.00,1.2715
3007.00,1.2744
3006.00,1.2777
3005.00,1.2812
3004.00,1.2847
3003.00,1.2879
3002.00,1.2907
3001.00,1.2933
3000.00,1.2960
2999.00,1.2992
2998.00,1.3030
2997.00,1.3073
2996.00,1.3122
2995.00,1.3175
2994.00,1.3232
2993.00,1.3294
2992.00,1.3364
2991.00,1.3444
2990.00,1.3538
2989.00,1.3646
2988.00,1.3767
2987.00,1.3898
2986.00,1.4038
2985.00,1.4189
2984.00,1.4356
2983.00,1.4546
2982.00,1.4759
2981.00,1.4990
2980.00,1.5235
2979.00,1.5496
2978.00,1.5778
2977.00,1.6089
2976.00,1.6434
2975.00,1.6815
2974.00,1.7234
2973.00,1.7688
2972.00,1.8173
2971.00,1.8682
2970.00,1.9213
2969.00,1.9764
2968.00,2.0339
2967.00,2.0939
2966.00,2.1555
2965.00,2.2165
2964.00,2.2749
2963.00,2.3308
2962.00,2.3857
2961.00,2.4397
2960.00,2.4906
2959.00,2.5359
2958.00,2.5754
2957.00,2.6095
2956.00,2.6355
2955.00,2.6487
2954.00,2.6478
2953.00,2.6393
2952.00,2.6336
2951.00,2.6373
2950.00,2.6484
2949.00,2.6586
2948.00,2.6614
2947.00,2.6590
2946.00,2.6590
2945.00,2.6684
2944.00,2.6907
2943.00,2.7259
2942.00,2.7714
2941.00,2.8226
2940.00,2.8760
2939.00,2.9318
2938.00,2.9931
2937.00,3.0598
2936.00,3.1275
2935.00,3.1930
2934.00,3.2622
2933.00,3.3450
2932.00,3.4416
2931.00,3.5360
2930.00,3.6158
2929.00,3.6871
2928.00,3.7559
2927.00,3.8267
2926.00,3.8984
2925.00,3.9829
2924.00,4.0067
2923.00,3.9566
2922.00,3.9294
2921.00,4.0894
2920.00,4.6146
2919.00,4.5891
2918.00,4.0657
2917.00,3.6777
2916.00,3.4795
2915.00,3.3658
2914.00,3.3078
2913.00,3.2677
2912.00,3.2095
2911.00,3.1410
2910.00,3.0660
2909.00,2.9946
2908.00,2.9350
2907.00,2.8905
2906.00,2.8547
2905.00,2.8159
2904.00,2.7697
2903.00,2.7231
2902.00,2.6848
2901.00,2.6558
2900.00,2.6297
2899.00,2.5991
2898.00,2.5613
2897.00,2.5204
2896.00,2.4818
2895.00,2.4471
2894.00,2.4137
2893.00,2.3778
2892.00,2.3391
2891.00,2.3007
2890.00,2.2655
2889.00,2.2337
2888.00,2.2044
2887.00,2.1772
2886.00,2.1530
2885.00,2.1330
2884.00,2.1173
2883.00,2.1053
2882.00,2.0960
2881.00,2.0892
2880.00,2.0863
2879.00,2.0892
2878.00,2.0990
2877.00,2.1155
2876.00,2.1374
2875.00,2.1633
2874.00,2.1917
2873.00,2.2207
2872.00,2.2473
2871.00,2.2685
2870.00,2.2836
2869.00,2.2952
2868.00,2.3078
2867.00,2.3249
2866.00,2.3475
2865.00,2.3750
2864.00,2.4073
2863.00,2.4453
2862.00,2.4897
2861.00,2.5383
2860.00,2.5880
2859.00,2.6375
2858.00,2.6886
2857.00,2.7424
2856.00,2.7952
2855.00,2.8383
2854.00,2.8639
2853.00,2.8697
2852.00,2.8575
2851.00,2.8264
2850.00,2.7716
2849.00,2.6922
2848.00,2.5964
2847.00,2.4954
2846.00,2.3955
2845.00,2.2987
2844.00,2.2056
2843.00,2.1175
2842.00,2.0354
2841.00,1.9595
2840.00,1.8893
2839.00,1.8247
2838.00,1.7658
2837.00,1.7129
2836.00,1.6655
2835.00,1.6232
2834.00,1.5851
2833.00,1.5509
2832.00,1.5202
2831.00,1.4927
2830.00,1.4682
2829.00,1.4464
2828.00,1.4269
2827.00,1.4093
2826.00,1.3936
2825.00,1.3793
2824.00,1.3665
2823.00,1.3548
2822.00,1.3441
2821.00,1.3340
2820.00,1.3244
2819.00,1.3152
2818.00,1.3067
2817.00,1.2989
2816.00,1.2917
2815.00,1.2850
2814.00,1.2787
2813.00,1.2728
2812.00,1.2673
2811.00,1.2620
2810.00,1.2570
2809.00,1.2522
2808.00,1.2477
2807.00,1.2437
2806.00,1.2399
2805.00,1.2359
2804.00,1.2317
2803.00,1.2273
2802.00,1.2233
2801.00,1.2197
2800.00,1.2166
2799.00,1.2138
2798.00,1.2113
2797.00,1.2087
2796.00,1.2059
2795.00,1.2029
2794.00,1.1997
2793.00,1.1968
2792.00,1.1944
2791.00,1.1922
2790.00,1.1899
2789.00,1.1875
2788.00,1.1849
2787.00,1.1825
2786.00,1.1804
2785.00,1.1784
2784.00,1.1763
2783.00,1.1739
2782.00,1.1715
2781.00,1.1694
2780.00,1.1678
2779.00,1.1665
2778.00,1.1650
2777.00,1.1634
2776.00,1.1617
2775.00,1.1603
2774.00,1.1592
2773.00,1.1582
2772.00,1.1572
2771.00,1.1561
2770.00,1.1550
2769.00,1.1541
2768.00,1.1532
2767.00,1.1524
2766.00,1.1517
2765.00,1.1509
2764.00,1.1502
2763.00,1.1495
2762.00,1.1491
2761.00,1.1489
2760.00,1.1488
2759.00,1.1486
2758.00,1.1482
2757.00,1.1478
2756.00,1.1473
2755.00,1.1470
2754.00,1.1467
2753.00,1.1464
2752.00,1.1460
2751.00,1.1456
2750.00,1.1455
2749.00,1.1457
2748.00,1.1459
2747.00,1.1461
2746.00,1.1463
2745.00,1.1464
2744.00,1.1464
2743.00,1.1462
2742.00,1.1462
2741.00,1.1465
2740.00,1.1473
2739.00,1.1486
2738.00,1.1498
2737.00,1.1508
2736.00,1.1515
2735.00,1.1522
2734.00,1.1531
2733.00,1.1542
2732.00,1.1554
2731.00,1.1564
2730.00,1.1570
2729.00,1.1570
2728.00,1.1565
2727.00,1.1557
2726.00,1.1549
2725.00,1.1543
2724.00,1.1539
2723.00,1.1535
2722.00,1.1529
2721.00,1.1523
2720.00,1.1516
2719.00,1.1509
2718.00,1.1502
2717.00,1.1495
2716.00,1.1485
2715.00,1.1472
2714.00,1.1459
2713.00,1.1448
2712.00,1.1441
2711.00,1.1435
2710.00,1.1428
2709.00,1.1420
2708.00,1.1413
2707.00,1.1408
2706.00,1.1403
2705.00,1.1398
2704.00,1.1394
2703.00,1.1391
2702.00,1.1388
2701.00,1.1386
2700.00,1.1382
2699.00,1.1380
2698.00,1.1379
2697.00,1.1380
2696.00,1.1384
2695.00,1.1388
2694.00,1.1390
2693.00,1.1392
2692.00,1.1392
2691.00,1.1393
2690.00,1.1394
2689.00,1.1396
2688.00,1.1399
2687.00,1.1402
2686.00,1.1406
2685.00,1.1407
2684.00,1.1405
2683.00,1.1400
2682.00,1.1396
2681.00,1.1394
2680.00,1.1394
2679.00,1.1394
2678.00,1.1394
2677.00,1.1394
2676.00,1.1394
2675.00,1.1393
2674.00,1.1391
2673.00,1.1386
2672.00,1.1381
2671.00,1.1377
2670.00,1.1375
2669.00,1.1375
2668.00,1.1374
2667.00,1.1371
2666.00,1.1366
2665.00,1.1360
2664.00,1.1354
2663.00,1.1348
2662.00,1.1342
2661.00,1.1337
2660.00,1.1334
2659.00,1.1330
2658.00,1.1325
2657.00,1.1318
2656.00,1.1312
2655.00,1.1307
2654.00,1.1305
2653.00,1.1303
2652.00,1.1301
2651.00,1.1297
2650.00,1.1292
2649.00,1.1285
2648.00,1.1278
2647.00,1.1271
2646.00,1.1264
2645.00,1.1258
2644.00,1.1255
2643.00,1.1252
2642.00,1.1249
2641.00,1.1246
2640.00,1.1243
2639.00,1.1239
2638.00,1.1235
2637.00,1.1232
2636.00,1.1228
2635.00,1.1224
2634.00,1.1221
2633.00,1.1219
2632.00,1.1220
2631.00,1.1220
2630.00,1.1219
2629.00,1.1215
2628.00,1.1210
2627.00,1.1205
2626.00,1.1198
2625.00,1.1191
2624.00,1.1184
2623.00,1.1178
2622.00,1.1174
2621.00,1.1172
2620.00,1.1170
2619.00,1.1168
2618.00,1.1164
2617.00,1.1158
2616.00,1.1151
2615.00,1.1144
2614.00,1.1140
2613.00,1.1137
2612.00,1.1135
2611.00,1.1131
2610.00,1.1127
2609.00,1.1124
2608.00,1.1122
2607.00,1.1120
2606.00,1.1117
2605.00,1.1113
2604.00,1.1109
2603.00,1.1106
2602.00,1.1105
2601.00,1.1104
2600.00,1.1102
2599.00,1.1100
2598.00,1.1096
2597.00,1.1092
2596.00,1.1087
2595.00,1.1083
2594.00,1.1078
2593.00,1.1072
2592.00,1.1065
2591.00,1.1058
2590.00,1.1053
2589.00,1.1050
2588.00,1.1048
2587.00,1.1046
2586.00,1.1042
2585.00,1.1036
2584.00,1.1029
2583.00,1.1022
2582.00,1.1016
2581.00,1.1012
2580.00,1.1008
2579.00,1.1005
2578.00,1.1001
2577.00,1.0995
2576.00,1.0988
2575.00,1.0982
2574.00,1.0977
2573.00,1.0973
2572.00,1.0969
2571.00,1.0964
2570.00,1.0959
2569.00,1.0953
2568.00,1.0948
2567.00,1.0942
2566.00,1.0938
2565.00,1.0934
2564.00,1.0929
2563.00,1.0922
2562.00,1.0913
2561.00,1.0905
2560.00,1.0899
2559.00,1.0897
2558.00,1.0897
2557.00,1.0897
2556.00,1.0896
2555.00,1.0892
2554.00,1.0888
2553.00,1.0885
2552.00,1.0881
2551.00,1.0878
2550.00,1.0874
2549.00,1.0872
2548.00,1.0871
2547.00,1.0870
2546.00,1.0869
2545.00,1.0867
2544.00,1.0864
2543.00,1.0861
2542.00,1.0857
2541.00,1.0854
2540.00,1.0851
2539.00,1.0849
2538.00,1.0847
2537.00,1.0846
2536.00,1.0844
2535.00,1.0839
2534.00,1.0834
2533.00,1.0831
2532.00,1.0828
2531.00,1.0825
2530.00,1.0821
2529.00,1.0816
2528.00,1.0812
2527.00,1.0809
2526.00,1.0807
2525.00,1.0806
2524.00,1.0805
2523.00,1.0802
2522.00,1.0798
2521.00,1.0794
2520.00,1.0790
2519.00,1.0786
2518.00,1.0783
2517.00,1.0781
2516.00,1.0779
2515.00,1.0777
2514.00,1.0774
2513.00,1.0769
2512.00,1.0765
2511.00,1.0760
2510.00,1.0757
2509.00,1.0755
2508.00,1.0754
2507.00,1.0753
2506.00,1.0753
2505.00,1.0752
2504.00,1.0750
2503.00,1.0748
2502.00,1.0746
2501.00,1.0744
2500.00,1.0742
2499.00,1.0741
2498.00,1.0741
2497.00,1.0743
2496.00,1.0744
2495.00,1.0744
2494.00,1.0742
2493.00,1.0739
2492.00,1.0736
2491.00,1.0735
2490.00,1.0733
2489.00,1.0731
2488.00,1.0728
2487.00,1.0725
2486.00,1.0723
2485.00,1.0721
2484.00,1.0720
2483.00,1.0718
2482.00,1.0716
2481.00,1.0714
2480.00,1.0712
2479.00,1.0710
2478.00,1.0708
2477.00,1.0707
2476.00,1.0707
2475.00,1.0706
2474.00,1.0701
2473.00,1.0696
2472.00,1.0691
2471.00,1.0689
2470.00,1.0689
2469.00,1.0689
2468.00,1.0688
2467.00,1.0686
2466.00,1.0684
2465.00,1.0682
2464.00,1.0682
2463.00,1.0682
2462.00,1.0681
2461.00,1.0678
2460.00,1.0674
2459.00,1.0671
2458.00,1.0668
2457.00,1.0667
2456.00,1.0666
2455.00,1.0666
2454.00,1.0665
2453.00,1.0663
2452.00,1.0662
2451.00,1.0660
2450.00,1.0660
2449.00,1.0661
2448.00,1.0662
2447.00,1.0663
2446.00,1.0662
2445.00,1.0661
2444.00,1.0659
2443.00,1.0658
2442.00,1.0656
2441.00,1.0655
2440.00,1.0654
2439.00,1.0654
2438.00,1.0654
2437.00,1.0655
2436.00,1.0656
2435.00,1.0657
2434.00,1.0656
2433.00,1.0655
2432.00,1.0654
2431.00,1.0654
2430.00,1.0655
2429.00,1.0656
2428.00,1.0655
2427.00,1.0652
2426.00,1.0649
2425.00,1.0649
2424.00,1.0651
2423.00,1.0652
2422.00,1.0653
2421.00,1.0653
2420.00,1.0651
2419.00,1.0648
2418.00,1.0645
2417.00,1.0645
2416.00,1.0646
2415.00,1.0648
2414.00,1.0650
2413.00,1.0649
2412.00,1.0648
2411.00,1.0645
2410.00,1.0642
2409.00,1.0641
2408.00,1.0642
2407.00,1.0643
2406.00,1.0642
2405.00,1.0640
2404.00,1.0639
2403.00,1.0638
2402.00,1.0638
2401.00,1.0637
2400.00,1.0635
2399.00,1.0632
2398.00,1.0631
2397.00,1.0631
2396.00,1.0631
2395.00,1.0630
2394.00,1.0629
2393.00,1.0628
2392.00,1.0628
2391.00,1.0628
2390.00,1.0627
2389.00,1.0624
2388.00,1.0621
2387.00,1.0617
2386.00,1.0615
2385.00,1.0613
2384.00,1.0610
2383.00,1.0606
2382.00,1.0600
2381.00,1.0593
2380.00,1.0587
2379.00,1.0582
2378.00,1.0579
2377.00,1.0581
2376.00,1.0586
2375.00,1.0592
2374.00,1.0597
2373.00,1.0600
2372.00,1.0600
2371.00,1.0598
2370.00,1.0595
2369.00,1.0591
2368.00,1.0586
2367.00,1.0583
2366.00,1.0581
2365.00,1.0580
2364.00,1.0581
2363.00,1.0583
2362.00,1.0585
2361.00,1.0588
2360.00,1.0594
2359.00,1.0602
2358.00,1.0612
2357.00,1.0621
2356.00,1.0628
2355.00,1.0631
2354.00,1.0631
2353.00,1.0625
2352.00,1.0612
2351.00,1.0598
2350.00,1.0588
2349.00,1.0581
2348.00,1.0573
2347.00,1.0561
2346.00,1.0549
2345.00,1.0544
2344.00,1.0549
2343.00,1.0560
2342.00,1.0571
2341.00,1.0580
2340.00,1.0585
2339.00,1.0585
2338.00,1.0582
2337.00,1.0582
2336.00,1.0585
2335.00,1.0591
2334.00,1.0597
2333.00,1.0599
2332.00,1.0597
2331.00,1.0595
2330.00,1.0592
2329.00,1.0591
2328.00,1.0591
2327.00,1.0593
2326.00,1.0597
2325.00,1.0599
2324.00,1.0599
2323.00,1.0595
2322.00,1.0592
2321.00,1.0592
2320.00,1.0593
2319.00,1.0592
2318.00,1.0587
2317.00,1.0580
2316.00,1.0572
2315.00,1.0564
2314.00,1.0557
2313.00,1.0552
2312.00,1.0549
2311.00,1.0547
2310.00,1.0546
2309.00,1.0545
2308.00,1.0544
2307.00,1.0540
2306.00,1.0534
2305.00,1.0529
2304.00,1.0526
2303.00,1.0525
2302.00,1.0523
2301.00,1.0521
2300.00,1.0520
2299.00,1.0518
2298.00,1.0517
2297.00,1.0515
2296.00,1.0513
2295.00,1.0511
2294.00,1.0509
2293.00,1.0507
2292.00,1.0505
2291.00,1.0504
2290.00,1.0503
2289.00,1.0501
2288.00,1.0498
2287.00,1.0496
2286.00,1.0495
2285.00,1.0496
2284.00,1.0497
2283.00,1.0497
2282.00,1.0495
2281.00,1.0492
2280.00,1.0489
2279.00,1.0487
2278.00,1.0486
2277.00,1.0485
2276.00,1.0485
2275.00,1.0484
2274.00,1.0483
2273.00,1.0483
2272.00,1.0483
2271.00,1.0483
2270.00,1.0482
2269.00,1.0481
2268.00,1.0479
2267.00,1.0477
2266.00,1.0474
2265.00,1.0472
2264.00,1.0471
2263.00,1.0468
2262.00,1.0466
2261.00,1.0466
2260.00,1.0466
2259.00,1.0465
2258.00,1.0462
2257.00,1.0459
2256.00,1.0458
2255.00,1.0458
2254.00,1.0457
2253.00,1.0455
2252.00,1.0453
2251.00,1.0452
2250.00,1.0452
2249.00,1.0451
2248.00,1.0450
2247.00,1.0449
2246.00,1.0448
2245.00,1.0448
2244.00,1.0447
2243.00,1.0446
2242.00,1.0445
2241.00,1.0444
2240.00,1.0443
2239.00,1.0440
2238.00,1.0435
2237.00,1.0432
2236.00,1.0431
2235.00,1.0432
2234.00,1.0433
2233.00,1.0434
2232.00,1.0435
2231.00,1.0435
2230.00,1.0434
2229.00,1.0433
2228.00,1.0431
2227.00,1.0430
2226.00,1.0429
2225.00,1.0428
2224.00,1.0426
2223.00,1.0423
2222.00,1.0420
2221.00,1.0419
2220.00,1.0418
2219.00,1.0416
2218.00,1.0414
2217.00,1.0412
2216.00,1.0412
2215.00,1.0412
2214.00,1.0410
2213.00,1.0408
2212.00,1.0408
2211.00,1.0408
2210.00,1.0408
2209.00,1.0408
2208.00,1.0407
2207.00,1.0406
2206.00,1.0406
2205.00,1.0407
2204.00,1.0408
2203.00,1.0409
2202.00,1.0409
2201.00,1.0408
2200.00,1.0407
2199.00,1.0407
2198.00,1.0406
2197.00,1.0405
2196.00,1.0404
2195.00,1.0403
2194.00,1.0403
2193.00,1.0403
2192.00,1.0404
2191.00,1.0404
2190.00,1.0404
2189.00,1.0403
2188.00,1.0402
2187.00,1.0401
2186.00,1.0400
2185.00,1.0399
2184.00,1.0399
2183.00,1.0398
2182.00,1.0397
2181.00,1.0396
2180.00,1.0395
2179.00,1.0395
2178.00,1.0394
2177.00,1.0394
2176.00,1.0395
2175.00,1.0396
2174.00,1.0395
2173.00,1.0392
2172.00,1.0388
2171.00,1.0385
2170.00,1.0383
2169.00,1.0382
2168.00,1.0381
2167.00,1.0380
2166.00,1.0378
2165.00,1.0377
2164.00,1.0375
2163.00,1.0374
2162.00,1.0373
2161.00,1.0373
2160.00,1.0373
2159.00,1.0375
2158.00,1.0375
2157.00,1.0374
2156.00,1.0372
2155.00,1.0370
2154.00,1.0369
2153.00,1.0369
2152.00,1.0370
2151.00,1.0370
2150.00,1.0369
2149.00,1.0368
2148.00,1.0366
2147.00,1.0364
2146.00,1.0361
2145.00,1.0360
2144.00,1.0359
2143.00,1.0359
2142.00,1.0358
2141.00,1.0356
2140.00,1.0354
2139.00,1.0352
2138.00,1.0351
2137.00,1.0350
2136.00,1.0349
2135.00,1.0347
2134.00,1.0345
2133.00,1.0343
2132.00,1.0342
2131.00,1.0342
2130.00,1.0343
2129.00,1.0343
2128.00,1.0342
2127.00,1.0339
2126.00,1.0335
2125.00,1.0331
2124.00,1.0330
2123.00,1.0329
2122.00,1.0329
2121.00,1.0327
2120.00,1.0326
2119.00,1.0326
2118.00,1.0326
2117.00,1.0327
2116.00,1.0326
2115.00,1.0324
2114.00,1.0321
2113.00,1.0318
2112.00,1.0316
2111.00,1.0314
2110.00,1.0311
2109.00,1.0308
2108.00,1.0306
2107.00,1.0306
2106.00,1.0307
2105.00,1.0308
2104.00,1.0307
2103.00,1.0306
2102.00,1.0305
2101.00,1.0306
2100.00,1.0307
2099.00,1.0307
2098.00,1.0307
2097.00,1.0307
2096.00,1.0306
2095.00,1.0304
2094.00,1.0304
2093.00,1.0305
2092.00,1.0306
2091.00,1.0308
2090.00,1.0308
2089.00,1.0309
2088.00,1.0310
2087.00,1.0311
2086.00,1.0311
2085.00,1.0310
2084.00,1.0308
2083.00,1.0306
2082.00,1.0305
2081.00,1.0305
2080.00,1.0304
2079.00,1.0303
2078.00,1.0303
2077.00,1.0304
2076.00,1.0306
2075.00,1.0308
2074.00,1.0309
2073.00,1.0309
2072.00,1.0307
2071.00,1.0304
2070.00,1.0301
2069.00,1.0299
2068.00,1.0298
2067.00,1.0297
2066.00,1.0297
2065.00,1.0297
2064.00,1.0299
2063.00,1.0302
2062.00,1.0303
2061.00,1.0304
2060.00,1.0304
2059.00,1.0301
2058.00,1.0298
2057.00,1.0294
2056.00,1.0292
2055.00,1.0293
2054.00,1.0294
2053.00,1.0296
2052.00,1.0296
2051.00,1.0296
2050.00,1.0296
2049.00,1.0295
2048.00,1.0294
2047.00,1.0294
2046.00,1.0294
2045.00,1.0294
2044.00,1.0295
2043.00,1.0296
2042.00,1.0297
2041.00,1.0298
2040.00,1.0300
2039.00,1.0302
2038.00,1.0303
2037.00,1.0302
2036.00,1.0299
2035.00,1.0297
2034.00,1.0298
2033.00,1.0299
2032.00,1.0299
2031.00,1.0298
2030.00,1.0296
2029.00,1.0294
2028.00,1.0293
2027.00,1.0293
2026.00,1.0294
2025.00,1.0296
2024.00,1.0296
2023.00,1.0294
2022.00,1.0291
2021.00,1.0288
2020.00,1.0285
2019.00,1.0282
2018.00,1.0279
2017.00,1.0277
2016.00,1.0275
2015.00,1.0273
2014.00,1.0270
2013.00,1.0268
2012.00,1.0266
2011.00,1.0264
2010.00,1.0262
2009.00,1.0260
2008.00,1.0257
2007.00,1.0253
2006.00,1.0250
2005.00,1.0248
2004.00,1.0248
2003.00,1.0248
2002.00,1.0248
2001.00,1.0248
2000.00,1.0249
1999.00,1.0249
1998.00,1.0247
1997.00,1.0243
1996.00,1.0237
1995.00,1.0231
1994.00,1.0227
1993.00,1.0224
1992.00,1.0223
1991.00,1.0225
1990.00,1.0228
1989.00,1.0232
1988.00,1.0235
1987.00,1.0236
1986.00,1.0236
1985.00,1.0235
1984.00,1.0235
1983.00,1.0234
1982.00,1.0234
1981.00,1.0235
1980.00,1.0235
1979.00,1.0233
1978.00,1.0229
1977.00,1.0225
1976.00,1.0223
1975.00,1.0222
1974.00,1.0224
1973.00,1.0225
1972.00,1.0225
1971.00,1.0223
1970.00,1.0220
1969.00,1.0217
1968.00,1.0214
1967.00,1.0214
1966.00,1.0215
1965.00,1.0217
1964.00,1.0218
1963.00,1.0218
1962.00,1.0217
1961.00,1.0216
1960.00,1.0216
1959.00,1.0217
1958.00,1.0218
1957.00,1.0218
1956.00,1.0216
1955.00,1.0215
1954.00,1.0215
1953.00,1.0216
1952.00,1.0217
1951.00,1.0218
1950.00,1.0218
1949.00,1.0216
1948.00,1.0214
1947.00,1.0212
1946.00,1.0211
1945.00,1.0211
1944.00,1.0210
1943.00,1.0210
1942.00,1.0212
1941.00,1.0216
1940.00,1.0221
1939.00,1.0224
1938.00,1.0225
1937.00,1.0225
1936.00,1.0226
1935.00,1.0227
1934.00,1.0226
1933.00,1.0224
1932.00,1.0222
1931.00,1.0221
1930.00,1.0220
1929.00,1.0218
1928.00,1.0216
1927.00,1.0214
1926.00,1.0212
1925.00,1.0209
1924.00,1.0205
1923.00,1.0204
1922.00,1.0208
1921.00,1.0214
1920.00,1.0218
1919.00,1.0217
1918.00,1.0215
1917.00,1.0216
1916.00,1.0222
1915.00,1.0227
1914.00,1.0226
1913.00,1.0220
1912.00,1.0212
1911.00,1.0206
1910.00,1.0204
1909.00,1.0204
1908.00,1.0206
1907.00,1.0208
1906.00,1.0208
1905.00,1.0208
1904.00,1.0206
1903.00,1.0205
1902.00,1.0206
1901.00,1.0207
1900.00,1.0207
1899.00,1.0204
1898.00,1.0200
1897.00,1.0198
1896.00,1.0197
1895.00,1.0197
1894.00,1.0198
1893.00,1.0199
1892.00,1.0199
1891.00,1.0198
1890.00,1.0196
1889.00,1.0195
1888.00,1.0197
1887.00,1.0200
1886.00,1.0203
1885.00,1.0203
1884.00,1.0201
1883.00,1.0197
1882.00,1.0194
1881.00,1.0191
1880.00,1.0191
1879.00,1.0192
1878.00,1.0192
1877.00,1.0192
1876.00,1.0191
1875.00,1.0188
1874.00,1.0184
1873.00,1.0180
1872.00,1.0176
1871.00,1.0172
1870.00,1.0168
1869.00,1.0166
1868.00,1.0167
1867.00,1.0171
1866.00,1.0173
1865.00,1.0174
1864.00,1.0174
1863.00,1.0173
1862.00,1.0173
1861.00,1.0171
1860.00,1.0169
1859.00,1.0165
1858.00,1.0161
1857.00,1.0159
1856.00,1.0159
1855.00,1.0161
1854.00,1.0161
1853.00,1.0161
1852.00,1.0157
1851.00,1.0152
1850.00,1.0146
1849.00,1.0140
1848.00,1.0135
1847.00,1.0132
1846.00,1.0132
1845.00,1.0132
1844.00,1.0132
1843.00,1.0133
1842.00,1.0136
1841.00,1.0139
1840.00,1.0139
1839.00,1.0135
1838.00,1.0132
1837.00,1.0132
1836.00,1.0133
1835.00,1.0134
1834.00,1.0134
1833.00,1.0134
1832.00,1.0134
1831.00,1.0133
1830.00,1.0130
1829.00,1.0127
1828.00,1.0125
1827.00,1.0123
1826.00,1.0119
1825.00,1.0116
1824.00,1.0117
1823.00,1.0120
1822.00,1.0124
1821.00,1.0125
1820.00,1.0124
1819.00,1.0122
1818.00,1.0120
1817.00,1.0121
1816.00,1.0123
1815.00,1.0124
1814.00,1.0122
1813.00,1.0120
1812.00,1.0119
1811.00,1.0120
1810.00,1.0122
1809.00,1.0124
1808.00,1.0126
1807.00,1.0126
1806.00,1.0124
1805.00,1.0119
1804.00,1.0112
1803.00,1.0108
1802.00,1.0110
1801.00,1.0118
1800.00,1.0129
1799.00,1.0134
1798.00,1.0131
1797.00,1.0126
1796.00,1.0124
1795.00,1.0125
1794.00,1.0127
1793.00,1.0128
1792.00,1.0130
1791.00,1.0134
1790.00,1.0141
1789.00,1.0146
1788.00,1.0146
1787.00,1.0142
1786.00,1.0137
1785.00,1.0138
1784.00,1.0145
1783.00,1.0155
1782.00,1.0162
1781.00,1.0165
1780.00,1.0168
1779.00,1.0171
1778.00,1.0176
1777.00,1.0180
1776.00,1.0184
1775.00,1.0191
1774.00,1.0203
1773.00,1.0216
1772.00,1.0226
1771.00,1.0231
1770.00,1.0236
1769.00,1.0243
1768.00,1.0254
1767.00,1.0271
1766.00,1.0291
1765.00,1.0312
1764.00,1.0334
1763.00,1.0361
1762.00,1.0395
1761.00,1.0440
1760.00,1.0490
1759.00,1.0544
1758.00,1.0607
1757.00,1.0683
1756.00,1.0771
1755.00,1.0861
1754.00,1.0943
1753.00,1.1019
1752.00,1.1096
1751.00,1.1179
1750.00,1.1261
1749.00,1.1330
1748.00,1.1376
1747.00,1.1396
1746.00,1.1393
1745.00,1.1371
1744.00,1.1335
1743.00,1.1291
1742.00,1.1243
1741.00,1.1188
1740.00,1.1120
1739.00,1.1046
1738.00,1.0979
1737.00,1.0922
1736.00,1.0865
1735.00,1.0799
1734.00,1.0727
1733.00,1.0673
1732.00,1.0637
1731.00,1.0606
1730.00,1.0573
1729.00,1.0542
1728.00,1.0515
1727.00,1.0493
1726.00,1.0471
1725.00,1.0451
1724.00,1.0431
1723.00,1.0414
1722.00,1.0400
1721.00,1.0390
1720.00,1.0383
1719.00,1.0373
1718.00,1.0364
1717.00,1.0361
1716.00,1.0366
1715.00,1.0372
1714.00,1.0373
1713.00,1.0372
1712.00,1.0369
1711.00,1.0366
1710.00,1.0363
1709.00,1.0364
1708.00,1.0368
1707.00,1.0371
1706.00,1.0369
1705.00,1.0365
1704.00,1.0363
1703.00,1.0364
1702.00,1.0367
1701.00,1.0364
1700.00,1.0355
1699.00,1.0350
1698.00,1.0353
1697.00,1.0354
1696.00,1.0347
1695.00,1.0335
1694.00,1.0329
1693.00,1.0328
1692.00,1.0324
1691.00,1.0314
1690.00,1.0303
1689.00,1.0296
1688.00,1.0297
1687.00,1.0302
1686.00,1.0309
1685.00,1.0313
1684.00,1.0313
1683.00,1.0313
1682.00,1.0317
1681.00,1.0320
1680.00,1.0319
1679.00,1.0320
1678.00,1.0325
1677.00,1.0335
1676.00,1.0342
1675.00,1.0348
1674.00,1.0353
1673.00,1.0362
1672.00,1.0372
1671.00,1.0378
1670.00,1.0381
1669.00,1.0381
1668.00,1.0383
1667.00,1.0389
1666.00,1.0397
1665.00,1.0406
1664.00,1.0413
1663.00,1.0419
1662.00,1.0427
1661.00,1.0440
1660.00,1.0452
1659.00,1.0459
1658.00,1.0458
1657.00,1.0454
1656.00,1.0452
1655.00,1.0460
1654.00,1.0476
1653.00,1.0491
1652.00,1.0504
1651.00,1.0514
1650.00,1.0515
1649.00,1.0510
1648.00,1.0500
1647.00,1.0491
1646.00,1.0488
1645.00,1.0491
1644.00,1.0495
1643.00,1.0494
1642.00,1.0491
1641.00,1.0488
1640.00,1.0488
1639.00,1.0492
1638.00,1.0500
1637.00,1.0513
1636.00,1.0529
1635.00,1.0544
1634.00,1.0558
1633.00,1.0570
1632.00,1.0580
1631.00,1.0588
1630.00,1.0601
1629.00,1.0620
1628.00,1.0642
1627.00,1.0661
1626.00,1.0679
1625.00,1.0699
1624.00,1.0723
1623.00,1.0749
1622.00,1.0778
1621.00,1.0810
1620.00,1.0844
1619.00,1.0881
1618.00,1.0925
1617.00,1.0976
1616.00,1.1029
1615.00,1.1077
1614.00,1.1118
1613.00,1.1156
1612.00,1.1194
1611.00,1.1233
1610.00,1.1279
1609.00,1.1328
1608.00,1.1375
1607.00,1.1412
1606.00,1.1440
1605.00,1.1462
1604.00,1.1481
1603.00,1.1499
1602.00,1.1518
1601.00,1.1545
1600.00,1.1582
1599.00,1.1626
1598.00,1.1679
1597.00,1.1741
1596.00,1.1813
1595.00,1.1891
1594.00,1.1977
1593.00,1.2078
1592.00,1.2198
1591.00,1.2344
1590.00,1.2525
1589.00,1.2758
1588.00,1.3063
1587.00,1.3451
1586.00,1.3944
1585.00,1.4565
1584.00,1.5322
1583.00,1.6167
1582.00,1.6974
1581.00,1.7557
1580.00,1.7762
1579.00,1.7541
1578.00,1.6941
1577.00,1.6088
1576.00,1.5181
1575.00,1.4419
1574.00,1.3871
1573.00,1.3489
1572.00,1.3209
1571.00,1.2995
1570.00,1.2842
1569.00,1.2759
1568.00,1.2747
1567.00,1.2796
1566.00,1.2900
1565.00,1.3061
1564.00,1.3270
1563.00,1.3501
1562.00,1.3726
1561.00,1.3922
1560.00,1.4019
1559.00,1.3896
1558.00,1.3575
1557.00,1.3216
1556.00,1.2874
1555.00,1.2531
1554.00,1.2202
1553.00,1.1922
1552.00,1.1703
1551.00,1.1527
1550.00,1.1378
1549.00,1.1258
1548.00,1.1167
1547.00,1.1094
1546.00,1.1033
1545.00,1.0985
1544.00,1.0954
1543.00,1.0938
1542.00,1.0929
1541.00,1.0921
1540.00,1.0906
1539.00,1.0882
1538.00,1.0856
1537.00,1.0834
1536.00,1.0813
1535.00,1.0793
1534.00,1.0778
1533.00,1.0773
1532.00,1.0782
1531.00,1.0797
1530.00,1.0813
1529.00,1.0828
1528.00,1.0842
1527.00,1.0856
1526.00,1.0874
1525.00,1.0896
1524.00,1.0920
1523.00,1.0948
1522.00,1.0982
1521.00,1.1030
1520.00,1.1089
1519.00,1.1151
1518.00,1.1212
1517.00,1.1277
1516.00,1.1343
1515.00,1.1402
1514.00,1.1448
1513.00,1.1475
1512.00,1.1482
1511.00,1.1467
1510.00,1.1437
1509.00,1.1403
1508.00,1.1369
1507.00,1.1335
1506.00,1.1304
1505.00,1.1281
1504.00,1.1262
1503.00,1.1244
1502.00,1.1229
1501.00,1.1225
1500.00,1.1234
1499.00,1.1254
1498.00,1.1290
1497.00,1.1349
1496.00,1.1432
1495.00,1.1524
1494.00,1.1609
1493.00,1.1680
1492.00,1.1734
1491.00,1.1766
1490.00,1.1782
1489.00,1.1787
1488.00,1.1786
1487.00,1.1780
1486.00,1.1782
1485.00,1.1802
1484.00,1.1838
1483.00,1.1888
1482.00,1.1953
1481.00,1.2042
1480.00,1.2151
1479.00,1.2276
1478.00,1.2421
1477.00,1.2600
1476.00,1.2815
1475.00,1.3074
1474.00,1.3408
1473.00,1.3867
1472.00,1.4450
1471.00,1.5096
1470.00,1.5741
1469.00,1.6352
1468.00,1.6893
1467.00,1.7320
1466.00,1.7609
1465.00,1.7771
1464.00,1.7836
1463.00,1.7853
1462.00,1.7867
1461.00,1.7892
1460.00,1.7921
1459.00,1.7953
1458.00,1.8003
1457.00,1.8069
1456.00,1.8106
1455.00,1.8080
1454.00,1.7997
1453.00,1.7860
1452.00,1.7672
1451.00,1.7455
1450.00,1.7238
1449.00,1.7022
1448.00,1.6788
1447.00,1.6533
1446.00,1.6269
1445.00,1.6002
1444.00,1.5731
1443.00,1.5457
1442.00,1.5190
1441.00,1.4940
1440.00,1.4710
1439.00,1.4495
1438.00,1.4276
1437.00,1.4042
1436.00,1.3809
1435.00,1.3601
1434.00,1.3412
1433.00,1.3220
1432.00,1.3016
1431.00,1.2811
1430.00,1.2618
1429.00,1.2445
1428.00,1.2295
1427.00,1.2169
1426.00,1.2063
1425.00,1.1974
1424.00,1.1905
1423.00,1.1858
1422.00,1.1824
1421.00,1.1790
1420.00,1.1756
1419.00,1.1732
1418.00,1.1719
1417.00,1.1712
1416.00,1.1706
1415.00,1.1703
1414.00,1.1703
1413.00,1.1703
1412.00,1.1707
1411.00,1.1715
1410.00,1.1725
1409.00,1.1729
1408.00,1.1721
1407.00,1.1699
1406.00,1.1660
1405.00,1.1607
1404.00,1.1550
1403.00,1.1497
1402.00,1.1446
1401.00,1.1392
1400.00,1.1340
1399.00,1.1297
1398.00,1.1268
1397.00,1.1250
1396.00,1.1241
1395.00,1.1243
1394.00,1.1256
1393.00,1.1275
1392.00,1.1302
1391.00,1.1342
1390.00,1.1400
1389.00,1.1482
1388.00,1.1600
1387.00,1.1761
1386.00,1.1951
1385.00,1.2153
1384.00,1.2363
1383.00,1.2590
1382.00,1.2842
1381.00,1.3117
1380.00,1.3401
1379.00,1.3662
1378.00,1.3853
1377.00,1.3931
1376.00,1.3878
1375.00,1.3711
1374.00,1.3476
1373.00,1.3230
1372.00,1.3015
1371.00,1.2846
1370.00,1.2720
1369.00,1.2635
1368.00,1.2587
1367.00,1.2558
1366.00,1.2521
1365.00,1.2450
1364.00,1.2339
1363.00,1.2203
1362.00,1.2067
1361.00,1.1950
1360.00,1.1857
1359.00,1.1782
1358.00,1.1721
1357.00,1.1673
1356.00,1.1638
1355.00,1.1619
1354.00,1.1612
1353.00,1.1611
1352.00,1.1610
1351.00,1.1608
1350.00,1.1605
1349.00,1.1602
1348.00,1.1602
1347.00,1.1604
1346.00,1.1605
1345.00,1.1602
1344.00,1.1593
1343.00,1.1578
1342.00,1.1556
1341.00,1.1527
1340.00,1.1494
1339.00,1.1464
1338.00,1.1435
1337.00,1.1405
1336.00,1.1371
1335.00,1.1336
1334.00,1.1301
1333.00,1.1271
1332.00,1.1246
1331.00,1.1227
1330.00,1.1213
1329.00,1.1204
1328.00,1.1201
1327.00,1.1206
1326.00,1.1219
1325.00,1.1237
1324.00,1.1258
1323.00,1.1282
1322.00,1.1303
1321.00,1.1323
1320.00,1.1342
1319.00,1.1363
1318.00,1.1386
1317.00,1.1406
1316.00,1.1422
1315.00,1.1435
1314.00,1.1448
1313.00,1.1462
1312.00,1.1478
1311.00,1.1493
1310.00,1.1502
1309.00,1.1505
1308.00,1.1507
1307.00,1.1512
1306.00,1.1520
1305.00,1.1524
1304.00,1.1524
1303.00,1.1521
1302.00,1.1516
1301.00,1.1509
1300.00,1.1499
1299.00,1.1485
1298.00,1.1469
1297.00,1.1449
1296.00,1.1427
1295.00,1.1405
1294.00,1.1384
1293.00,1.1363
1292.00,1.1342
1291.00,1.1323
1290.00,1.1305
1289.00,1.1289
1288.00,1.1274
1287.00,1.1258
1286.00,1.1242
1285.00,1.1225
1284.00,1.1207
1283.00,1.1192
1282.00,1.1181
1281.00,1.1174
1280.00,1.1172
1279.00,1.1174
1278.00,1.1179
1277.00,1.1182
1276.00,1.1183
1275.00,1.1184
1274.00,1.1185
1273.00,1.1190
1272.00,1.1200
1271.00,1.1216
1270.00,1.1233
1269.00,1.1248
1268.00,1.1254
1267.00,1.1251
1266.00,1.1239
1265.00,1.1224
1264.00,1.1211
1263.00,1.1203
1262.00,1.1198
1261.00,1.1197
1260.00,1.1199
1259.00,1.1207
1258.00,1.1217
1257.00,1.1228
1256.00,1.1237
1255.00,1.1250
1254.00,1.1267
1253.00,1.1286
1252.00,1.1301
1251.00,1.1311
1250.00,1.1318
1249.00,1.1324
1248.00,1.1333
1247.00,1.1340
1246.00,1.1343
1245.00,1.1340
1244.00,1.1335
1243.00,1.1331
1242.00,1.1326
1241.00,1.1320
1240.00,1.1314
1239.00,1.1311
1238.00,1.1311
1237.00,1.1309
1236.00,1.1305
1235.00,1.1300
1234.00,1.1297
1233.00,1.1294
1232.00,1.1287
1231.00,1.1276
1230.00,1.1262
1229.00,1.1246
1228.00,1.1230
1227.00,1.1213
1226.00,1.1193
1225.00,1.1173
1224.00,1.1154
1223.00,1.1142
1222.00,1.1135
1221.00,1.1130
1220.00,1.1125
1219.00,1.1124
1218.00,1.1128
1217.00,1.1133
1216.00,1.1140
1215.00,1.1149
1214.00,1.1159
1213.00,1.1166
1212.00,1.1168
1211.00,1.1166
1210.00,1.1161
1209.00,1.1158
1208.00,1.1160
1207.00,1.1171
1206.00,1.1192
1205.00,1.1219
1204.00,1.1250
1203.00,1.1284
1202.00,1.1318
1201.00,1.1347
1200.00,1.1369
1199.00,1.1382
1198.00,1.1385
1197.00,1.1379
1196.00,1.1365
1195.00,1.1347
1194.00,1.1332
1193.00,1.1320
1192.00,1.1308
1191.00,1.1290
1190.00,1.1261
1189.00,1.1222
1188.00,1.1177
1187.00,1.1131
1186.00,1.1090
1185.00,1.1057
1184.00,1.1035
1183.00,1.1023
1182.00,1.1023
1181.00,1.1034
1180.00,1.1055
1179.00,1.1079
1178.00,1.1102
1177.00,1.1121
1176.00,1.1138
1175.00,1.1159
1174.00,1.1185
1173.00,1.1216
1172.00,1.1249
1171.00,1.1277
1170.00,1.1294
1169.00,1.1297
1168.00,1.1287
1167.00,1.1270
1166.00,1.1253
1165.00,1.1239
1164.00,1.1228
1163.00,1.1211
1162.00,1.1184
1161.00,1.1148
1160.00,1.1112
1159.00,1.1081
1158.00,1.1055
1157.00,1.1029
1156.00,1.1001
1155.00,1.0972
1154.00,1.0946
1153.00,1.0921
1152.00,1.0898
1151.00,1.0876
1150.00,1.0858
1149.00,1.0842
1148.00,1.0828
1147.00,1.0814
1146.00,1.0799
1145.00,1.0785
1144.00,1.0776
1143.00,1.0776
1142.00,1.0780
1141.00,1.0785
1140.00,1.0789
1139.00,1.0796
1138.00,1.0807
1137.00,1.0821
1136.00,1.0838
1135.00,1.0855
1134.00,1.0867
1133.00,1.0866
1132.00,1.0848
1131.00,1.0816
1130.00,1.0776
1129.00,1.0735
1128.00,1.0699
1127.00,1.0672
1126.00,1.0657
1125.00,1.0650
1124.00,1.0652
1123.00,1.0658
1122.00,1.0664
1121.00,1.0667
1120.00,1.0667
1119.00,1.0669
1118.00,1.0676
1117.00,1.0691
1116.00,1.0711
1115.00,1.0734
1114.00,1.0753
1113.00,1.0760
1112.00,1.0752
1111.00,1.0729
1110.00,1.0697
1109.00,1.0664
1108.00,1.0640
1107.00,1.0630
1106.00,1.0633
1105.00,1.0644
1104.00,1.0658
1103.00,1.0673
1102.00,1.0689
1101.00,1.0706
1100.00,1.0726
1099.00,1.0746
1098.00,1.0763
1097.00,1.0772
1096.00,1.0774
1095.00,1.0771
1094.00,1.0766
1093.00,1.0759
1092.00,1.0752
1091.00,1.0748
1090.00,1.0743
1089.00,1.0734
1088.00,1.0719
1087.00,1.0706
1086.00,1.0701
1085.00,1.0701
1084.00,1.0702
1083.00,1.0704
1082.00,1.0708
1081.00,1.0717
1080.00,1.0731
1079.00,1.0747
1078.00,1.0758
1077.00,1.0757
1076.00,1.0746
1075.00,1.0729
1074.00,1.0710
1073.00,1.0689
1072.00,1.0663
1071.00,1.0634
1070.00,1.0603
1069.00,1.0571
1068.00,1.0539
1067.00,1.0510
1066.00,1.0486
1065.00,1.0466
1064.00,1.0451
1063.00,1.0439
1062.00,1.0431
1061.00,1.0423
1060.00,1.0415
1059.00,1.0404
1058.00,1.0391
1057.00,1.0379
1056.00,1.0370
1055.00,1.0364
1054.00,1.0360
1053.00,1.0354
1052.00,1.0350
1051.00,1.0352
1050.00,1.0355
1049.00,1.0356
1048.00,1.0355
1047.00,1.0355
1046.00,1.0358
1045.00,1.0361
1044.00,1.0361
1043.00,1.0360
1042.00,1.0360
1041.00,1.0359
1040.00,1.0356
1039.00,1.0346
1038.00,1.0332
1037.00,1.0317
1036.00,1.0306
1035.00,1.0307
1034.00,1.0320
1033.00,1.0340
1032.00,1.0364
1031.00,1.0391
1030.00,1.0419
1029.00,1.0445
1028.00,1.0468
1027.00,1.0482
1026.00,1.0482
1025.00,1.0464
1024.00,1.0431
1023.00,1.0392
1022.00,1.0359
1021.00,1.0334
1020.00,1.0319
1019.00,1.0313
1018.00,1.0313
1017.00,1.0313
1016.00,1.0305
1015.00,1.0289
1014.00,1.0270
1013.00,1.0258
1012.00,1.0261
1011.00,1.0277
1010.00,1.0296
1009.00,1.0301
1008.00,1.0285
1007.00,1.0252
1006.00,1.0216
1005.00,1.0191
1004.00,1.0180
1003.00,1.0182
1002.00,1.0192
1001.00,1.0208
1000.00,1.0222
999.00,1.0230
998.00,1.0232
997.00,1.0229
996.00,1.0225
995.00,1.0224
994.00,1.0225
993.00,1.0228
992.00,1.0231
991.00,1.0235
990.00,1.0239
989.00,1.0248
988.00,1.0262
987.00,1.0283
986.00,1.0312
985.00,1.0348
984.00,1.0387
983.00,1.0426
982.00,1.0462
981.00,1.0496
980.00,1.0535
979.00,1.0581
978.00,1.0631
977.00,1.0680
976.00,1.0726
975.00,1.0771
974.00,1.0817
973.00,1.0863
972.00,1.0909
971.00,1.0951
970.00,1.0988
969.00,1.1015
968.00,1.1030
967.00,1.1032
966.00,1.1024
965.00,1.1007
964.00,1.0985
963.00,1.0959
962.00,1.0928
961.00,1.0896
960.00,1.0864
959.00,1.0828
958.00,1.0781
957.00,1.0725
956.00,1.0664
955.00,1.0605
954.00,1.0546
953.00,1.0483
952.00,1.0415
951.00,1.0350
950.00,1.0294
949.00,1.0247
948.00,1.0208
947.00,1.0177
946.00,1.0155
945.00,1.0141
944.00,1.0136
943.00,1.0137
942.00,1.0145
941.00,1.0155
940.00,1.0163
939.00,1.0167
938.00,1.0165
937.00,1.0160
936.00,1.0158
935.00,1.0163
934.00,1.0172
933.00,1.0181
932.00,1.0183
931.00,1.0181
930.00,1.0178
929.00,1.0175
928.00,1.0177
927.00,1.0186
926.00,1.0206
925.00,1.0236
924.00,1.0271
923.00,1.0305
922.00,1.0334
921.00,1.0355
920.00,1.0369
919.00,1.0375
918.00,1.0370
917.00,1.0353
916.00,1.0328
915.00,1.0300
914.00,1.0272
913.00,1.0246
912.00,1.0229
911.00,1.0221
910.00,1.0216
909.00,1.0207
908.00,1.0193
907.00,1.0182
906.00,1.0175
905.00,1.0169
904.00,1.0159
903.00,1.0143
902.00,1.0127
901.00,1.0115
900.00,1.0112
899.00,1.0116
898.00,1.0122
897.00,1.0126
896.00,1.0128
895.00,1.0133
894.00,1.0139
893.00,1.0143
892.00,1.0145
891.00,1.0144
890.00,1.0141
889.00,1.0137
888.00,1.0134
887.00,1.0130
886.00,1.0122
885.00,1.0108
884.00,1.0090
883.00,1.0074
882.00,1.0063
881.00,1.0054
880.00,1.0047
879.00,1.0046
878.00,1.0052
877.00,1.0059
876.00,1.0064
875.00,1.0067
874.00,1.0070
873.00,1.0074
872.00,1.0073
871.00,1.0066
870.00,1.0056
869.00,1.0048
868.00,1.0047
867.00,1.0053
866.00,1.0065
865.00,1.0080
864.00,1.0095
863.00,1.0106
862.00,1.0112
861.00,1.0109
860.00,1.0094
859.00,1.0069
858.00,1.0034
857.00,0.9996
856.00,0.9960
855.00,0.9932
854.00,0.9916
853.00,0.9913
852.00,0.9922
851.00,0.9938
850.00,0.9952
849.00,0.9958
848.00,0.9959
847.00,0.9961
846.00,0.9964
845.00,0.9967
844.00,0.9972
843.00,0.9986
842.00,1.0011
841.00,1.0047
840.00,1.0095
839.00,1.0158
838.00,1.0232
837.00,1.0296
836.00,1.0329
835.00,1.0321
834.00,1.0284
833.00,1.0233
832.00,1.0181
831.00,1.0136
830.00,1.0102
829.00,1.0075
828.00,1.0056
827.00,1.0044
826.00,1.0043
825.00,1.0053
824.00,1.0074
823.00,1.0098
822.00,1.0117
821.00,1.0125
820.00,1.0124
819.00,1.0125
818.00,1.0130
817.00,1.0132
816.00,1.0125
815.00,1.0113
814.00,1.0102
813.00,1.0091
812.00,1.0075
811.00,1.0052
810.00,1.0029
809.00,1.0010
808.00,0.9995
807.00,0.9982
806.00,0.9969
805.00,0.9956
804.00,0.9940
803.00,0.9924
802.00,0.9909
801.00,0.9897
800.00,0.9883
799.00,0.9868
798.00,0.9857
797.00,0.9853
796.00,0.9857
795.00,0.9865
794.00,0.9872
793.00,0.9878
792.00,0.9886
791.00,0.9903
790.00,0.9931
789.00,0.9964
788.00,0.9992
787.00,1.0010
786.00,1.0023
785.00,1.0036
784.00,1.0053
783.00,1.0075
782.00,1.0103
781.00,1.0133
780.00,1.0156
779.00,1.0168
778.00,1.0174
777.00,1.0178
776.00,1.0183
775.00,1.0187
774.00,1.0189
773.00,1.0191
772.00,1.0195
771.00,1.0202
770.00,1.0209
769.00,1.0215
768.00,1.0220
767.00,1.0228
766.00,1.0241
765.00,1.0259
764.00,1.0278
763.00,1.0296
762.00,1.0306
761.00,1.0311
760.00,1.0316
759.00,1.0328
758.00,1.0349
757.00,1.0373
756.00,1.0393
755.00,1.0406
754.00,1.0416
753.00,1.0423
752.00,1.0427
751.00,1.0426
750.00,1.0418
749.00,1.0404
748.00,1.0388
747.00,1.0374
746.00,1.0369
745.00,1.0372
744.00,1.0381
743.00,1.0393
742.00,1.0407
741.00,1.0419
740.00,1.0428
739.00,1.0435
738.00,1.0441
737.00,1.0448
736.00,1.0456
735.00,1.0470
734.00,1.0494
733.00,1.0525
732.00,1.0560
731.00,1.0597
730.00,1.0640
729.00,1.0698
728.00,1.0774
727.00,1.0871
726.00,1.0983
725.00,1.1097
724.00,1.1196
723.00,1.1269
722.00,1.1304
721.00,1.1287
720.00,1.1207
719.00,1.1072
718.00,1.0910
717.00,1.0752
716.00,1.0613
715.00,1.0496
714.00,1.0396
713.00,1.0310
712.00,1.0238
711.00,1.0180
710.00,1.0134
709.00,1.0096
708.00,1.0059
707.00,1.0023
706.00,0.9990
705.00,0.9964
704.00,0.9940
703.00,0.9916
702.00,0.9894
701.00,0.9881
700.00,0.9879
699.00,0.9879
698.00,0.9872
697.00,0.9856
696.00,0.9836
695.00,0.9820
694.00,0.9813
693.00,0.9814
692.00,0.9820
691.00,0.9832
690.00,0.9847
689.00,0.9858
688.00,0.9853
687.00,0.9825
686.00,0.9777
685.00,0.9719
684.00,0.9666
683.00,0.9626
682.00,0.9601
681.00,0.9587
680.00,0.9582
679.00,0.9579
678.00,0.9576
677.00,0.9576
676.00,0.9581
675.00,0.9592
674.00,0.9599
673.00,0.9596
672.00,0.9586
671.00,0.9581
670.00,0.9591
669.00,0.9614
668.00,0.9643
667.00,0.9656
666.00,0.9639
665.00,0.9616
664.00,0.9604
663.00,0.9598
662.00,0.9592
661.00,0.9589
660.00,0.9598
659.00,0.9614
658.00,0.9628
657.00,0.9634
656.00,0.9634
655.00,0.9636
654.00,0.9642
653.00,0.9651
652.00,0.9659
651.00,0.9664
650.00,0.9666
649.00,0.9671
648.00,0.9682
647.00,0.9695
646.00,0.9703
645.00,0.9699
644.00,0.9695
643.00,0.9703
642.00,0.9730
641.00,0.9767
640.00,0.9799
639.00,0.9821
638.00,0.9832
637.00,0.9834
636.00,0.9828
635.00,0.9818
634.00,0.9818
633.00,0.9834
632.00,0.9862
631.00,0.9887
630.00,0.9896
629.00,0.9893
628.00,0.9887
627.00,0.9889
626.00,0.9900
625.00,0.9917
624.00,0.9934
623.00,0.9950
622.00,0.9968
621.00,0.9996
620.00,1.0038
619.00,1.0082
618.00,1.0106
617.00,1.0100
616.00,1.0076
615.00,1.0053
614.00,1.0039
613.00,1.0031
612.00,1.0024
611.00,1.0020
610.00,1.0012
609.00,0.9994
608.00,0.9970
607.00,0.9955
606.00,0.9960
605.00,0.9976
604.00,0.9981
603.00,0.9965
602.00,0.9937
601.00,0.9915
600.00,0.9907
599.00,0.9912
598.00,0.9928
597.00,0.9952
596.00,0.9983
595.00,1.0015
594.00,1.0036
593.00,1.0042
592.00,1.0041
591.00,1.0045
590.00,1.0058
589.00,1.0076
588.00,1.0093
587.00,1.0110
586.00,1.0129
585.00,1.0149
584.00,1.0167
583.00,1.0182
582.00,1.0199
581.00,1.0225
580.00,1.0256
579.00,1.0282
578.00,1.0300
577.00,1.0322
576.00,1.0357
575.00,1.0397
574.00,1.0425
573.00,1.0428
572.00,1.0410
571.00,1.0385
570.00,1.0367
569.00,1.0369
568.00,1.0390
567.00,1.0413
566.00,1.0420
565.00,1.0410
564.00,1.0401
563.00,1.0407
562.00,1.0427
561.00,1.0449
560.00,1.0465
559.00,1.0468
558.00,1.0459
557.00,1.0444
556.00,1.0438
555.00,1.0448
554.00,1.0466
553.00,1.0479
552.00,1.0483
551.00,1.0486
550.00,1.0492
