Created as New Dataset,Sample 004 By Laboratory Date Friday, November 21 2025
cm-1,A
4000.00,1.1141
3999.00,1.1138
3998.00,1.1137
3997.00,1.1138
3996.00,1.1139
3995.00,1.1139
3994.00,1.1137
3993.00,1.1135
3992.00,1.1134
3991.00,1.1134
3990.00,1.1135
3989.00,1.1137
3988.00,1.1140
3987.00,1.1140
3986.00,1.1138
3985.00,1.1134
3984.00,1.1129
3983.00,1.1125
3982.00,1.1121
3981.00,1.1115
3980.00,1.1109
3979.00,1.1104
3978.00,1.1103
3977.00,1.1105
3976.00,1.1107
3975.00,1.1107
3974.00,1.1107
3973.00,1.1107
3972.00,1.1107
3971.00,1.1108
3970.00,1.1108
3969.00,1.1108
3968.00,1.1109
3967.00,1.1111
3966.00,1.1113
3965.00,1.1114
3964.00,1.1111
3963.00,1.1106
3962.00,1.1101
3961.00,1.1098
3960.00,1.1098
3959.00,1.1098
3958.00,1.1098
3957.00,1.1095
3956.00,1.1093
3955.00,1.1092
3954.00,1.1092
3953.00,1.1094
3952.00,1.1097
3951.00,1.1099
3950.00,1.1099
3949.00,1.1098
3948.00,1.1097
3947.00,1.1095
3946.00,1.1095
3945.00,1.1095
3944.00,1.1094
3943.00,1.1091
3942.00,1.1087
3941.00,1.1084
3940.00,1.1084
3939.00,1.1086
3938.00,1.1086
3937.00,1.1084
3936.00,1.1082
3935.00,1.1082
3934.00,1.1083
3933.00,1.1084
3932.00,1.1082
3931.00,1.1079
3930.00,1.1078
3929.00,1.1078
3928.00,1.1079
3927.00,1.1081
3926.00,1.1081
3925.00,1.1081
3924.00,1.1080
3923.00,1.1081
3922.00,1.1082
3921.00,1.1081
3920.00,1.1079
3919.00,1.1078
3918.00,1.1081
3917.00,1.1087
3916.00,1.1093
3915.00,1.1094
3914.00,1.1090
3913.00,1.1082
3912.00,1.1075
3911.00,1.1070
3910.00,1.1069
3909.00,1.1070
3908.00,1.1072
3907.00,1.1075
3906.00,1.1079
3905.00,1.1084
3904.00,1.1089
3903.00,1.1095
3902.00,1.1100
3901.00,1.1104
3900.00,1.1105
3899.00,1.1106
3898.00,1.1106
3897.00,1.1106
3896.00,1.1104
3895.00,1.1100
3894.00,1.1096
3893.00,1.1092
3892.00,1.1088
3891.00,1.1086
3890.00,1.1087
3889.00,1.1091
3888.00,1.1095
3887.00,1.1095
3886.00,1.1091
3885.00,1.1087
3884.00,1.1087
3883.00,1.1091
3882.00,1.1094
3881.00,1.1092
3880.00,1.1085
3879.00,1.1079
3878.00,1.1076
3877.00,1.1079
3876.00,1.1084
3875.00,1.1086
3874.00,1.1085
3873.00,1.1083
3872.00,1.1083
3871.00,1.1085
3870.00,1.1088
3869.00,1.1091
3868.00,1.1094
3867.00,1.1098
3866.00,1.1100
3865.00,1.1098
3864.00,1.1092
3863.00,1.1086
3862.00,1.1079
3861.00,1.1071
3860.00,1.1066
3859.00,1.1065
3858.00,1.1070
3857.00,1.1079
3856.00,1.1090
3855.00,1.1097
3854.00,1.1101
3853.00,1.1104
3852.00,1.1108
3851.00,1.1111
3850.00,1.1109
3849.00,1.1101
3848.00,1.1088
3847.00,1.1074
3846.00,1.1059
3845.00,1.1046
3844.00,1.1040
3843.00,1.1041
3842.00,1.1050
3841.00,1.1063
3840.00,1.1074
3839.00,1.1083
3838.00,1.1089
3837.00,1.1094
3836.00,1.1097
3835.00,1.1098
3834.00,1.1094
3833.00,1.1086
3832.00,1.1075
3831.00,1.1062
3830.00,1.1052
3829.00,1.1044
3828.00,1.1039
3827.00,1.1035
3826.00,1.1035
3825.00,1.1040
3824.00,1.1050
3823.00,1.1061
3822.00,1.1067
3821.00,1.1068
3820.00,1.1070
3819.00,1.1073
3818.00,1.1077
3817.00,1.1077
3816.00,1.1072
3815.00,1.1064
3814.00,1.1057
3813.00,1.1050
3812.00,1.1042
3811.00,1.1034
3810.00,1.1026
3809.00,1.1020
3808.00,1.1017
3807.00,1.1017
3806.00,1.1023
3805.00,1.1034
3804.00,1.1045
3803.00,1.1051
3802.00,1.1050
3801.00,1.1047
3800.00,1.1045
3799.00,1.1047
3798.00,1.1046
3797.00,1.1040
3796.00,1.1030
3795.00,1.1018
3794.00,1.1008
3793.00,1.1000
3792.00,1.0992
3791.00,1.0985
3790.00,1.0980
3789.00,1.0976
3788.00,1.0974
3787.00,1.0973
3786.00,1.0973
3785.00,1.0973
3784.00,1.0974
3783.00,1.0973
3782.00,1.0972
3781.00,1.0971
3780.00,1.0971
3779.00,1.0972
3778.00,1.0973
3777.00,1.0973
3776.00,1.0973
3775.00,1.0973
3774.00,1.0974
3773.00,1.0977
3772.00,1.0981
3771.00,1.0982
3770.00,1.0979
3769.00,1.0977
3768.00,1.0977
3767.00,1.0980
3766.00,1.0982
3765.00,1.0979
3764.00,1.0974
3763.00,1.0971
3762.00,1.0973
3761.00,1.0976
3760.00,1.0979
3759.00,1.0982
3758.00,1.0984
3757.00,1.0986
3756.00,1.0989
3755.00,1.0992
3754.00,1.0997
3753.00,1.1002
3752.00,1.1009
3751.00,1.1017
3750.00,1.1024
3749.00,1.1032
3748.00,1.1042
3747.00,1.1054
3746.00,1.1063
3745.00,1.1064
3744.00,1.1057
3743.00,1.1047
3742.00,1.1038
3741.00,1.1029
3740.00,1.1018
3739.00,1.1006
3738.00,1.0996
3737.00,1.0989
3736.00,1.0987
3735.00,1.0990
3734.00,1.0996
3733.00,1.0999
3732.00,1.0997
3731.00,1.0991
3730.00,1.0982
3729.00,1.0972
3728.00,1.0960
3727.00,1.0950
3726.00,1.0944
3725.00,1.0944
3724.00,1.0949
3723.00,1.0953
3722.00,1.0955
3721.00,1.0954
3720.00,1.0950
3719.00,1.0946
3718.00,1.0941
3717.00,1.0936
3716.00,1.0933
3715.00,1.0934
3714.00,1.0939
3713.00,1.0947
3712.00,1.0956
3711.00,1.0963
3710.00,1.0967
3709.00,1.0968
3708.00,1.0965
3707.00,1.0960
3706.00,1.0955
3705.00,1.0949
3704.00,1.0944
3703.00,1.0939
3702.00,1.0935
3701.00,1.0933
3700.00,1.0933
3699.00,1.0935
3698.00,1.0934
3697.00,1.0932
3696.00,1.0927
3695.00,1.0925
3694.00,1.0926
3693.00,1.0931
3692.00,1.0938
3691.00,1.0946
3690.00,1.0955
3689.00,1.0964
3688.00,1.0971
3687.00,1.0973
3686.00,1.0972
3685.00,1.0968
3684.00,1.0962
3683.00,1.0955
3682.00,1.0949
3681.00,1.0945
3680.00,1.0946
3679.00,1.0951
3678.00,1.0960
3677.00,1.0970
3676.00,1.0978
3675.00,1.0985
3674.00,1.0993
3673.00,1.1000
3672.00,1.1006
3671.00,1.1005
3670.00,1.0998
3669.00,1.0988
3668.00,1.0979
3667.00,1.0971
3666.00,1.0964
3665.00,1.0957
3664.00,1.0949
3663.00,1.0942
3662.00,1.0937
3661.00,1.0937
3660.00,1.0940
3659.00,1.0946
3658.00,1.0952
3657.00,1.0959
3656.00,1.0965
3655.00,1.0975
3654.00,1.0989
3653.00,1.1006
3652.00,1.1021
3651.00,1.1034
3650.00,1.1046
3649.00,1.1056
3648.00,1.1065
3647.00,1.1069
3646.00,1.1065
3645.00,1.1054
3644.00,1.1039
3643.00,1.1022
3642.00,1.1006
3641.00,1.0992
3640.00,1.0981
3639.00,1.0973
3638.00,1.0969
3637.00,1.0969
3636.00,1.0971
3635.00,1.0972
3634.00,1.0973
3633.00,1.0978
3632.00,1.0986
3631.00,1.0997
3630.00,1.1006
3629.00,1.1012
3628.00,1.1018
3627.00,1.1024
3626.00,1.1028
3625.00,1.1028
3624.00,1.1024
3623.00,1.1019
3622.00,1.1016
3621.00,1.1013
3620.00,1.1010
3619.00,1.1006
3618.00,1.1001
3617.00,1.0996
3616.00,1.0990
3615.00,1.0984
3614.00,1.0978
3613.00,1.0974
3612.00,1.0973
3611.00,1.0973
3610.00,1.0974
3609.00,1.0974
3608.00,1.0973
3607.00,1.0970
3606.00,1.0964
3605.00,1.0958
3604.00,1.0952
3603.00,1.0947
3602.00,1.0942
3601.00,1.0937
3600.00,1.0931
3599.00,1.0926
3598.00,1.0923
3597.00,1.0921
3596.00,1.0921
3595.00,1.0922
3594.00,1.0922
3593.00,1.0923
3592.00,1.0923
3591.00,1.0922
3590.00,1.0922
3589.00,1.0921
3588.00,1.0921
3587.00,1.0923
3586.00,1.0927
3585.00,1.0930
3584.00,1.0929
3583.00,1.0924
3582.00,1.0915
3581.00,1.0906
3580.00,1.0900
3579.00,1.0896
3578.00,1.0894
3577.00,1.0892
3576.00,1.0889
3575.00,1.0888
3574.00,1.0888
3573.00,1.0889
3572.00,1.0890
3571.00,1.0893
3570.00,1.0898
3569.00,1.0904
3568.00,1.0911
3567.00,1.0918
3566.00,1.0926
3565.00,1.0933
3564.00,1.0935
3563.00,1.0932
3562.00,1.0924
3561.00,1.0915
3560.00,1.0908
3559.00,1.0905
3558.00,1.0905
3557.00,1.0907
3556.00,1.0907
3555.00,1.0907
3554.00,1.0906
3553.00,1.0903
3552.00,1.0899
3551.00,1.0898
3550.00,1.0900
3549.00,1.0904
3548.00,1.0909
3547.00,1.0912
3546.00,1.0916
3545.00,1.0919
3544.00,1.0921
3543.00,1.0921
3542.00,1.0920
3541.00,1.0919
3540.00,1.0919
3539.00,1.0919
3538.00,1.0917
3537.00,1.0912
3536.00,1.0906
3535.00,1.0902
3534.00,1.0900
3533.00,1.0901
3532.00,1.0906
3531.00,1.0912
3530.00,1.0917
3529.00,1.0921
3528.00,1.0921
3527.00,1.0921
3526.00,1.0920
3525.00,1.0921
3524.00,1.0922
3523.00,1.0922
3522.00,1.0921
3521.00,1.0919
3520.00,1.0918
3519.00,1.0919
3518.00,1.0922
3517.00,1.0926
3516.00,1.0929
3515.00,1.0932
3514.00,1.0934
3513.00,1.0935
3512.00,1.0936
3511.00,1.0937
3510.00,1.0939
3509.00,1.0942
3508.00,1.0945
3507.00,1.0947
3506.00,1.0947
3505.00,1.0946
3504.00,1.0944
3503.00,1.0943
3502.00,1.0943
3501.00,1.0946
3500.00,1.0949
3499.00,1.0952
3498.00,1.0954
3497.00,1.0957
3496.00,1.0960
3495.00,1.0964
3494.00,1.0969
3493.00,1.0974
3492.00,1.0981
3491.00,1.0986
3490.00,1.0989
3489.00,1.0989
3488.00,1.0989
3487.00,1.0992
3486.00,1.0997
3485.00,1.1003
3484.00,1.1009
3483.00,1.1015
3482.00,1.1019
3481.00,1.1021
3480.00,1.1022
3479.00,1.1022
3478.00,1.1023
3477.00,1.1025
3476.00,1.1027
3475.00,1.1029
3474.00,1.1031
3473.00,1.1033
3472.00,1.1036
3471.00,1.1038
3470.00,1.1038
3469.00,1.1037
3468.00,1.1035
3467.00,1.1034
3466.00,1.1036
3465.00,1.1040
3464.00,1.1045
3463.00,1.1048
3462.00,1.1048
3461.00,1.1047
3460.00,1.1047
3459.00,1.1047
3458.00,1.1048
3457.00,1.1049
3456.00,1.1052
3455.00,1.1056
3454.00,1.1059
3453.00,1.1061
3452.00,1.1063
3451.00,1.1065
3450.00,1.1069
3449.00,1.1072
3448.00,1.1075
3447.00,1.1078
3446.00,1.1083
3445.00,1.1088
3444.00,1.1092
3443.00,1.1096
3442.00,1.1100
3441.00,1.1104
3440.00,1.1107
3439.00,1.1110
3438.00,1.1112
3437.00,1.1114
3436.00,1.1117
3435.00,1.1122
3434.00,1.1127
3433.00,1.1131
3432.00,1.1135
3431.00,1.1141
3430.00,1.1146
3429.00,1.1151
3428.00,1.1154
3427.00,1.1156
3426.00,1.1158
3425.00,1.1160
3424.00,1.1164
3423.00,1.1171
3422.00,1.1180
3421.00,1.1189
3420.00,1.1194
3419.00,1.1197
3418.00,1.1197
3417.00,1.1198
3416.00,1.1200
3415.00,1.1204
3414.00,1.1211
3413.00,1.1218
3412.00,1.1224
3411.00,1.1229
3410.00,1.1234
3409.00,1.1238
3408.00,1.1242
3407.00,1.1246
3406.00,1.1251
3405.00,1.1256
3404.00,1.1261
3403.00,1.1266
3402.00,1.1269
3401.00,1.1271
3400.00,1.1273
3399.00,1.1277
3398.00,1.1283
3397.00,1.1289
3396.00,1.1294
3395.00,1.1296
3394.00,1.1299
3393.00,1.1302
3392.00,1.1307
3391.00,1.1312
3390.00,1.1315
3389.00,1.1316
3388.00,1.1316
3387.00,1.1318
3386.00,1.1322
3385.00,1.1328
3384.00,1.1335
3383.00,1.1341
3382.00,1.1345
3381.00,1.1348
3380.00,1.1350
3379.00,1.1353
3378.00,1.1357
3377.00,1.1360
3376.00,1.1364
3375.00,1.1369
3374.00,1.1375
3373.00,1.1379
3372.00,1.1381
3371.00,1.1382
3370.00,1.1385
3369.00,1.1391
3368.00,1.1397
3367.00,1.1403
3366.00,1.1407
3365.00,1.1410
3364.00,1.1414
3363.00,1.1419
3362.00,1.1427
3361.00,1.1437
3360.00,1.1445
3359.00,1.1452
3358.00,1.1455
3357.00,1.1458
3356.00,1.1461
3355.00,1.1465
3354.00,1.1472
3353.00,1.1481
3352.00,1.1490
3351.00,1.1497
3350.00,1.1501
3349.00,1.1503
3348.00,1.1504
3347.00,1.1506
3346.00,1.1510
3345.00,1.1514
3344.00,1.1518
3343.00,1.1521
3342.00,1.1524
3341.00,1.1527
3340.00,1.1531
3339.00,1.1534
3338.00,1.1535
3337.00,1.1536
3336.00,1.1537
3335.00,1.1538
3334.00,1.1539
3333.00,1.1539
3332.00,1.1541
3331.00,1.1543
3330.00,1.1544
3329.00,1.1541
3328.00,1.1538
3327.00,1.1534
3326.00,1.1533
3325.00,1.1535
3324.00,1.1538
3323.00,1.1540
3322.00,1.1539
3321.00,1.1535
3320.00,1.1531
3319.00,1.1529
3318.00,1.1528
3317.00,1.1526
3316.00,1.1524
3315.00,1.1520
3314.00,1.1517
3313.00,1.1514
3312.00,1.1512
3311.00,1.1510
3310.00,1.1504
3309.00,1.1497
3308.00,1.1489
3307.00,1.1483
3306.00,1.1481
3305.00,1.1481
3304.00,1.1481
3303.00,1.1478
3302.00,1.1474
3301.00,1.1471
3300.00,1.1469
3299.00,1.1469
3298.00,1.1468
3297.00,1.1467
3296.00,1.1466
3295.00,1.1464
3294.00,1.1463
3293.00,1.1461
3292.00,1.1459
3291.00,1.1456
3290.00,1.1455
3289.00,1.1453
3288.00,1.1451
3287.00,1.1448
3286.00,1.1446
3285.00,1.1443
3284.00,1.1440
3283.00,1.1437
3282.00,1.1434
3281.00,1.1432
3280.00,1.1434
3279.00,1.1438
3278.00,1.1442
3277.00,1.1445
3276.00,1.1444
3275.00,1.1442
3274.00,1.1441
3273.00,1.1441
3272.00,1.1441
3271.00,1.1441
3270.00,1.1442
3269.00,1.1441
3268.00,1.1439
3267.00,1.1435
3266.00,1.1430
3265.00,1.1427
3264.00,1.1425
3263.00,1.1424
3262.00,1.1424
3261.00,1.1425
3260.00,1.1428
3259.00,1.1430
3258.00,1.1431
3257.00,1.1429
3256.00,1.1426
3255.00,1.1425
3254.00,1.1426
3253.00,1.1429
3252.00,1.1430
3251.00,1.1429
3250.00,1.1427
3249.00,1.1425
3248.00,1.1422
3247.00,1.1420
3246.00,1.1418
3245.00,1.1418
3244.00,1.1419
3243.00,1.1419
3242.00,1.1418
3241.00,1.1417
3240.00,1.1416
3239.00,1.1415
3238.00,1.1413
3237.00,1.1412
3236.00,1.1412
3235.00,1.1411
3234.00,1.1408
3233.00,1.1404
3232.00,1.1399
3231.00,1.1395
3230.00,1.1393
3229.00,1.1392
3228.00,1.1392
3227.00,1.1392
3226.00,1.1390
3225.00,1.1386
3224.00,1.1381
3223.00,1.1378
3222.00,1.1375
3221.00,1.1372
3220.00,1.1367
3219.00,1.1363
3218.00,1.1359
3217.00,1.1357
3216.00,1.1356
3215.00,1.1354
3214.00,1.1352
3213.00,1.1350
3212.00,1.1348
3211.00,1.1347
3210.00,1.1345
3209.00,1.1341
3208.00,1.1335
3207.00,1.1327
3206.00,1.1320
3205.00,1.1314
3204.00,1.1310
3203.00,1.1306
3202.00,1.1302
3201.00,1.1299
3200.00,1.1297
3199.00,1.1296
3198.00,1.1296
3197.00,1.1294
3196.00,1.1289
3195.00,1.1281
3194.00,1.1274
3193.00,1.1269
3192.00,1.1265
3191.00,1.1262
3190.00,1.1259
3189.00,1.1254
3188.00,1.1248
3187.00,1.1241
3186.00,1.1235
3185.00,1.1231
3184.00,1.1229
3183.00,1.1228
3182.00,1.1226
3181.00,1.1221
3180.00,1.1218
3179.00,1.1215
3178.00,1.1211
3177.00,1.1206
3176.00,1.1200
3175.00,1.1196
3174.00,1.1194
3173.00,1.1192
3172.00,1.1189
3171.00,1.1185
3170.00,1.1181
3169.00,1.1176
3168.00,1.1171
3167.00,1.1165
3166.00,1.1158
3165.00,1.1153
3164.00,1.1149
3163.00,1.1146
3162.00,1.1144
3161.00,1.1140
3160.00,1.1136
3159.00,1.1132
3158.00,1.1126
3157.00,1.1120
3156.00,1.1115
3155.00,1.1110
3154.00,1.1107
3153.00,1.1106
3152.00,1.1106
3151.00,1.1106
3150.00,1.1106
3149.00,1.1103
3148.00,1.1097
3147.00,1.1090
3146.00,1.1085
3145.00,1.1081
3144.00,1.1079
3143.00,1.1077
3142.00,1.1075
3141.00,1.1072
3140.00,1.1068
3139.00,1.1066
3138.00,1.1064
3137.00,1.1063
3136.00,1.1062
3135.00,1.1060
3134.00,1.1058
3133.00,1.1057
3132.00,1.1057
3131.00,1.1059
3130.00,1.1060
3129.00,1.1059
3128.00,1.1059
3127.00,1.1059
3126.00,1.1059
3125.00,1.1060
3124.00,1.1061
3123.00,1.1060
3122.00,1.1059
3121.00,1.1056
3120.00,1.1053
3119.00,1.1049
3118.00,1.1047
3117.00,1.1047
3116.00,1.1047
3115.00,1.1048
3114.00,1.1050
3113.00,1.1051
3112.00,1.1054
3111.00,1.1056
3110.00,1.1057
3109.00,1.1057
3108.00,1.1056
3107.00,1.1056
3106.00,1.1058
3105.00,1.1061
3104.00,1.1065
3103.00,1.1068
3102.00,1.1071
3101.00,1.1076
3100.00,1.1081
3099.00,1.1086
3098.00,1.1092
3097.00,1.1098
3096.00,1.1104
3095.00,1.1108
3094.00,1.1110
3093.00,1.1111
3092.00,1.1111
3091.00,1.1111
3090.00,1.1116
3089.00,1.1125
3088.00,1.1139
3087.00,1.1154
3086.00,1.1166
3085.00,1.1175
3084.00,1.1183
3083.00,1.1191
3082.00,1.1202
3081.00,1.1213
3080.00,1.1224
3079.00,1.1236
3078.00,1.1249
3077.00,1.1260
3076.00,1.1271
3075.00,1.1282
3074.00,1.1297
3073.00,1.1314
3072.00,1.1331
3071.00,1.1345
3070.00,1.1355
3069.00,1.1363
3068.00,1.1370
3067.00,1.1379
3066.00,1.1390
3065.00,1.1403
3064.00,1.1417
3063.00,1.1430
3062.00,1.1443
3061.00,1.1454
3060.00,1.1464
3059.00,1.1471
3058.00,1.1477
3057.00,1.1482
3056.00,1.1489
3055.00,1.1497
3054.00,1.1506
3053.00,1.1514
3052.00,1.1522
3051.00,1.1529
3050.00,1.1536
3049.00,1.1544
3048.00,1.1551
3047.00,1.1558
3046.00,1.1566
3045.00,1.1575
3044.00,1.1585
3043.00,1.1595
3042.00,1.1603
3041.00,1.1610
3040.00,1.1616
3039.00,1.1623
3038.00,1.1631
3037.00,1.1641
3036.00,1.1651
3035.00,1.1661
3034.00,1.1672
3033.00,1.1684
3032.00,1.1701
3031.00,1.1720
3030.00,1.1739
3029.00,1.1756
3028.00,1.1774
3027.00,1.1792
3026.00,1.1811
3025.00,1.1833
3024.00,1.1854
3023.00,1.1875
3022.00,1.1898
3021.00,1.1923
3020.00,1.1950
3019.00,1.1978
3018.00,1.2006
3017.00,1.2033
3016.00,1.2062
3015.00,1.2092
3014.00,1.2123
3013.00,1.2154
3012.00,1.2186
3011.00,1.2220
3010.00,1.2255
3009.00,1.2291
3008.00,1.2324
3007.00,1.2356
3006.00,1.2388
3005.00,1.2421
3004.00,1.2456
3003.00,1.2492
3002.00,1.2526
3001.00,1.2559
3000.00,1.2591
2999.00,1.2624
2998.00,1.2660
2997.00,1.2701
2996.00,1.2751
2995.00,1.2811
2994.00,1.2880
2993.00,1.2956
2992.00,1.3038
2991.00,1.3127
2990.00,1.3226
2989.00,1.3337
2988.00,1.3459
2987.00,1.3594
2986.00,1.3743
2985.00,1.3908
2984.00,1.4092
2983.00,1.4294
2982.00,1.4517
2981.00,1.4760
2980.00,1.5027
2979.00,1.5317
2978.00,1.5629
2977.00,1.5967
2976.00,1.6337
2975.00,1.6742
2974.00,1.7180
2973.00,1.7648
2972.00,1.8147
2971.00,1.8680
2970.00,1.9252
2969.00,1.9859
2968.00,2.0489
2967.00,2.1126
2966.00,2.1766
2965.00,2.2414
2964.00,2.3079
2963.00,2.3756
2962.00,2.4409
2961.00,2.4986
2960.00,2.5455
2959.00,2.5827
2958.00,2.6140
2957.00,2.6419
2956.00,2.6669
2955.00,2.6884
2954.00,2.7042
2953.00,2.7116
2952.00,2.7096
2951.00,2.7019
2950.00,2.6949
2949.00,2.6937
2948.00,2.6985
2947.00,2.7051
2946.00,2.7098
2945.00,2.7141
2944.00,2.7240
2943.00,2.7455
2942.00,2.7837
2941.00,2.8431
2940.00,2.9256
2939.00,3.0258
2938.00,3.1293
2937.00,3.2233
2936.00,3.3111
2935.00,3.3994
2934.00,3.4760
2933.00,3.5264
2932.00,3.5831
2931.00,3.6913
2930.00,3.8085
2929.00,3.8592
2928.00,3.9022
2927.00,4.0441
2926.00,4.3287
2925.00,4.7305
2924.00,4.8877
2923.00,4.3913
2922.00,3.9991
2921.00,3.7665
2920.00,3.6561
2919.00,3.6228
2918.00,3.6324
2917.00,3.6376
2916.00,3.6146
2915.00,3.5736
2914.00,3.5059
2913.00,3.4034
2912.00,3.2802
2911.00,3.1637
2910.00,3.0694
2909.00,2.9983
2908.00,2.9447
2907.00,2.9039
2906.00,2.8727
2905.00,2.8448
2904.00,2.8137
2903.00,2.7779
2902.00,2.7392
2901.00,2.7001
2900.00,2.6622
2899.00,2.6277
2898.00,2.5969
2897.00,2.5665
2896.00,2.5319
2895.00,2.4920
2894.00,2.4502
2893.00,2.4103
2892.00,2.3737
2891.00,2.3395
2890.00,2.3069
2889.00,2.2759
2888.00,2.2466
2887.00,2.2180
2886.00,2.1895
2885.00,2.1621
2884.00,2.1386
2883.00,2.1207
2882.00,2.1089
2881.00,2.1036
2880.00,2.1049
2879.00,2.1128
2878.00,2.1255
2877.00,2.1412
2876.00,2.1598
2875.00,2.1824
2874.00,2.2091
2873.00,2.2375
2872.00,2.2647
2871.00,2.2888
2870.00,2.3086
2869.00,2.3233
2868.00,2.3346
2867.00,2.3462
2866.00,2.3620
2865.00,2.3848
2864.00,2.4163
2863.00,2.4582
2862.00,2.5105
2861.00,2.5694
2860.00,2.6271
2859.00,2.6768
2858.00,2.7177
2857.00,2.7569
2856.00,2.8038
2855.00,2.8593
2854.00,2.9085
2853.00,2.9289
2852.00,2.9118
2851.00,2.8679
2850.00,2.8057
2849.00,2.7247
2848.00,2.6268
2847.00,2.5207
2846.00,2.4153
2845.00,2.3151
2844.00,2.2216
2843.00,2.1346
2842.00,2.0532
2841.00,1.9763
2840.00,1.9039
2839.00,1.8363
2838.00,1.7740
2837.00,1.7170
2836.00,1.6648
2835.00,1.6176
2834.00,1.5753
2833.00,1.5380
2832.00,1.5053
2831.00,1.4763
2830.00,1.4502
2829.00,1.4265
2828.00,1.4052
2827.00,1.3862
2826.00,1.3693
2825.00,1.3537
2824.00,1.3392
2823.00,1.3258
2822.00,1.3138
2821.00,1.3033
2820.00,1.2937
2819.00,1.2847
2818.00,1.2759
2817.00,1.2674
2816.00,1.2595
2815.00,1.2522
2814.00,1.2455
2813.00,1.2394
2812.00,1.2335
2811.00,1.2277
2810.00,1.2220
2809.00,1.2166
2808.00,1.2117
2807.00,1.2072
2806.00,1.2028
2805.00,1.1985
2804.00,1.1943
2803.00,1.1904
2802.00,1.1866
2801.00,1.1828
2800.00,1.1790
2799.00,1.1752
2798.00,1.1718
2797.00,1.1687
2796.00,1.1658
2795.00,1.1630
2794.00,1.1602
2793.00,1.1574
2792.00,1.1547
2791.00,1.1520
2790.00,1.1494
2789.00,1.1468
2788.00,1.1445
2787.00,1.1423
2786.00,1.1401
2785.00,1.1378
2784.00,1.1354
2783.00,1.1331
2782.00,1.1310
2781.00,1.1290
2780.00,1.1272
2779.00,1.1254
2778.00,1.1235
2777.00,1.1216
2776.00,1.1197
2775.00,1.1179
2774.00,1.1164
2773.00,1.1150
2772.00,1.1139
2771.00,1.1129
2770.00,1.1119
2769.00,1.1108
2768.00,1.1098
2767.00,1.1090
2766.00,1.1084
2765.00,1.1081
2764.00,1.1078
2763.00,1.1075
2762.00,1.1069
2761.00,1.1064
2760.00,1.1059
2759.00,1.1056
2758.00,1.1052
2757.00,1.1046
2756.00,1.1039
2755.00,1.1034
2754.00,1.1033
2753.00,1.1033
2752.00,1.1033
2751.00,1.1031
2750.00,1.1029
2749.00,1.1028
2748.00,1.1027
2747.00,1.1027
2746.00,1.1028
2745.00,1.1029
2744.00,1.1030
2743.00,1.1034
2742.00,1.1039
2741.00,1.1045
2740.00,1.1051
2739.00,1.1058
2738.00,1.1064
2737.00,1.1071
2736.00,1.1078
2735.00,1.1087
2734.00,1.1098
2733.00,1.1110
2732.00,1.1121
2731.00,1.1128
2730.00,1.1134
2729.00,1.1138
2728.00,1.1139
2727.00,1.1139
2726.00,1.1136
2725.00,1.1131
2724.00,1.1123
2723.00,1.1113
2722.00,1.1104
2721.00,1.1096
2720.00,1.1090
2719.00,1.1084
2718.00,1.1077
2717.00,1.1068
2716.00,1.1057
2715.00,1.1045
2714.00,1.1034
2713.00,1.1022
2712.00,1.1012
2711.00,1.1003
2710.00,1.0996
2709.00,1.0989
2708.00,1.0980
2707.00,1.0971
2706.00,1.0963
2705.00,1.0958
2704.00,1.0954
2703.00,1.0951
2702.00,1.0949
2701.00,1.0947
2700.00,1.0946
2699.00,1.0945
2698.00,1.0945
2697.00,1.0944
2696.00,1.0944
2695.00,1.0946
2694.00,1.0949
2693.00,1.0952
2692.00,1.0955
2691.00,1.0958
2690.00,1.0960
2689.00,1.0962
2688.00,1.0963
2687.00,1.0964
2686.00,1.0965
2685.00,1.0967
2684.00,1.0969
2683.00,1.0972
2682.00,1.0974
2681.00,1.0974
2680.00,1.0973
2679.00,1.0971
2678.00,1.0971
2677.00,1.0970
2676.00,1.0968
2675.00,1.0966
2674.00,1.0963
2673.00,1.0961
2672.00,1.0960
2671.00,1.0960
2670.00,1.0959
2669.00,1.0956
2668.00,1.0952
2667.00,1.0947
2666.00,1.0942
2665.00,1.0935
2664.00,1.0927
2663.00,1.0919
2662.00,1.0912
2661.00,1.0907
2660.00,1.0902
2659.00,1.0897
2658.00,1.0895
2657.00,1.0893
2656.00,1.0891
2655.00,1.0887
2654.00,1.0880
2653.00,1.0872
2652.00,1.0865
2651.00,1.0858
2650.00,1.0852
2649.00,1.0846
2648.00,1.0837
2647.00,1.0828
2646.00,1.0821
2645.00,1.0817
2644.00,1.0815
2643.00,1.0813
2642.00,1.0810
2641.00,1.0807
2640.00,1.0805
2639.00,1.0803
2638.00,1.0800
2637.00,1.0794
2636.00,1.0788
2635.00,1.0783
2634.00,1.0780
2633.00,1.0778
2632.00,1.0777
2631.00,1.0776
2630.00,1.0775
2629.00,1.0773
2628.00,1.0770
2627.00,1.0765
2626.00,1.0759
2625.00,1.0754
2624.00,1.0750
2623.00,1.0746
2622.00,1.0743
2621.00,1.0740
2620.00,1.0737
2619.00,1.0735
2618.00,1.0733
2617.00,1.0730
2616.00,1.0725
2615.00,1.0718
2614.00,1.0712
2613.00,1.0709
2612.00,1.0707
2611.00,1.0706
2610.00,1.0705
2609.00,1.0703
2608.00,1.0699
2607.00,1.0695
2606.00,1.0691
2605.00,1.0687
2604.00,1.0685
2603.00,1.0681
2602.00,1.0677
2601.00,1.0671
2600.00,1.0664
2599.00,1.0657
2598.00,1.0652
2597.00,1.0649
2596.00,1.0647
2595.00,1.0644
2594.00,1.0641
2593.00,1.0637
2592.00,1.0631
2591.00,1.0625
2590.00,1.0620
2589.00,1.0615
2588.00,1.0611
2587.00,1.0605
2586.00,1.0599
2585.00,1.0594
2584.00,1.0589
2583.00,1.0585
2582.00,1.0580
2581.00,1.0574
2580.00,1.0568
2579.00,1.0562
2578.00,1.0557
2577.00,1.0553
2576.00,1.0550
2575.00,1.0548
2574.00,1.0545
2573.00,1.0542
2572.00,1.0537
2571.00,1.0533
2570.00,1.0529
2569.00,1.0524
2568.00,1.0520
2567.00,1.0516
2566.00,1.0511
2565.00,1.0505
2564.00,1.0499
2563.00,1.0492
2562.00,1.0488
2561.00,1.0484
2560.00,1.0480
2559.00,1.0474
2558.00,1.0467
2557.00,1.0463
2556.00,1.0461
2555.00,1.0460
2554.00,1.0459
2553.00,1.0455
2552.00,1.0449
2551.00,1.0444
2550.00,1.0441
2549.00,1.0439
2548.00,1.0435
2547.00,1.0430
2546.00,1.0427
2545.00,1.0425
2544.00,1.0424
2543.00,1.0422
2542.00,1.0420
2541.00,1.0417
2540.00,1.0415
2539.00,1.0413
2538.00,1.0411
2537.00,1.0409
2536.00,1.0406
2535.00,1.0404
2534.00,1.0402
2533.00,1.0402
2532.00,1.0401
2531.00,1.0399
2530.00,1.0395
2529.00,1.0391
2528.00,1.0388
2527.00,1.0385
2526.00,1.0381
2525.00,1.0377
2524.00,1.0374
2523.00,1.0371
2522.00,1.0369
2521.00,1.0365
2520.00,1.0362
2519.00,1.0358
2518.00,1.0355
2517.00,1.0352
2516.00,1.0348
2515.00,1.0343
2514.00,1.0339
2513.00,1.0337
2512.00,1.0337
2511.00,1.0337
2510.00,1.0336
2509.00,1.0334
2508.00,1.0331
2507.00,1.0328
2506.00,1.0325
2505.00,1.0323
2504.00,1.0322
2503.00,1.0321
2502.00,1.0320
2501.00,1.0318
2500.00,1.0317
2499.00,1.0316
2498.00,1.0315
2497.00,1.0313
2496.00,1.0312
2495.00,1.0311
2494.00,1.0310
2493.00,1.0308
2492.00,1.0304
2491.00,1.0299
2490.00,1.0293
2489.00,1.0289
2488.00,1.0288
2487.00,1.0287
2486.00,1.0285
2485.00,1.0283
2484.00,1.0279
2483.00,1.0276
2482.00,1.0274
2481.00,1.0273
2480.00,1.0273
2479.00,1.0274
2478.00,1.0273
2477.00,1.0271
2476.00,1.0268
2475.00,1.0265
2474.00,1.0261
2473.00,1.0257
2472.00,1.0253
2471.00,1.0251
2470.00,1.0249
2469.00,1.0248
2468.00,1.0247
2467.00,1.0246
2466.00,1.0244
2465.00,1.0242
2464.00,1.0238
2463.00,1.0235
2462.00,1.0233
2461.00,1.0232
2460.00,1.0231
2459.00,1.0230
2458.00,1.0229
2457.00,1.0229
2456.00,1.0229
2455.00,1.0230
2454.00,1.0231
2453.00,1.0231
2452.00,1.0231
2451.00,1.0231
2450.00,1.0231
2449.00,1.0230
2448.00,1.0230
2447.00,1.0229
2446.00,1.0228
2445.00,1.0228
2444.00,1.0230
2443.00,1.0232
2442.00,1.0232
2441.00,1.0231
2440.00,1.0228
2439.00,1.0226
2438.00,1.0224
2437.00,1.0224
2436.00,1.0223
2435.00,1.0222
2434.00,1.0221
2433.00,1.0220
2432.00,1.0220
2431.00,1.0220
2430.00,1.0218
2429.00,1.0216
2428.00,1.0214
2427.00,1.0213
2426.00,1.0214
2425.00,1.0215
2424.00,1.0215
2423.00,1.0214
2422.00,1.0212
2421.00,1.0209
2420.00,1.0205
2419.00,1.0202
2418.00,1.0199
2417.00,1.0197
2416.00,1.0197
2415.00,1.0199
2414.00,1.0202
2413.00,1.0204
2412.00,1.0205
2411.00,1.0204
2410.00,1.0203
2409.00,1.0201
2408.00,1.0199
2407.00,1.0198
2406.00,1.0197
2405.00,1.0197
2404.00,1.0198
2403.00,1.0199
2402.00,1.0199
2401.00,1.0197
2400.00,1.0196
2399.00,1.0197
2398.00,1.0199
2397.00,1.0201
2396.00,1.0202
2395.00,1.0200
2394.00,1.0198
2393.00,1.0196
2392.00,1.0194
2391.00,1.0193
2390.00,1.0192
2389.00,1.0192
2388.00,1.0192
2387.00,1.0191
2386.00,1.0186
2385.00,1.0178
2384.00,1.0169
2383.00,1.0161
2382.00,1.0155
2381.00,1.0151
2380.00,1.0148
2379.00,1.0149
2378.00,1.0152
2377.00,1.0157
2376.00,1.0164
2375.00,1.0170
2374.00,1.0173
2373.00,1.0172
2372.00,1.0167
2371.00,1.0162
2370.00,1.0157
2369.00,1.0155
2368.00,1.0156
2367.00,1.0159
2366.00,1.0163
2365.00,1.0163
2364.00,1.0159
2363.00,1.0157
2362.00,1.0158
2361.00,1.0163
2360.00,1.0168
2359.00,1.0172
2358.00,1.0179
2357.00,1.0188
2356.00,1.0198
2355.00,1.0206
2354.00,1.0208
2353.00,1.0205
2352.00,1.0194
2351.00,1.0177
2350.00,1.0161
2349.00,1.0149
2348.00,1.0139
2347.00,1.0128
2346.00,1.0118
2345.00,1.0115
2344.00,1.0120
2343.00,1.0130
2342.00,1.0140
2341.00,1.0146
2340.00,1.0147
2339.00,1.0147
2338.00,1.0148
2337.00,1.0152
2336.00,1.0157
2335.00,1.0157
2334.00,1.0152
2333.00,1.0149
2332.00,1.0148
2331.00,1.0151
2330.00,1.0156
2329.00,1.0157
2328.00,1.0157
2327.00,1.0154
2326.00,1.0154
2325.00,1.0155
2324.00,1.0157
2323.00,1.0160
2322.00,1.0163
2321.00,1.0164
2320.00,1.0163
2319.00,1.0160
2318.00,1.0157
2317.00,1.0152
2316.00,1.0146
2315.00,1.0139
2314.00,1.0132
2313.00,1.0127
2312.00,1.0123
2311.00,1.0119
2310.00,1.0116
2309.00,1.0113
2308.00,1.0113
2307.00,1.0114
2306.00,1.0113
2305.00,1.0112
2304.00,1.0108
2303.00,1.0104
2302.00,1.0099
2301.00,1.0096
2300.00,1.0094
2299.00,1.0094
2298.00,1.0094
2297.00,1.0094
2296.00,1.0094
2295.00,1.0091
2294.00,1.0088
2293.00,1.0084
2292.00,1.0081
2291.00,1.0079
2290.00,1.0078
2289.00,1.0078
2288.00,1.0079
2287.00,1.0079
2286.00,1.0079
2285.00,1.0078
2284.00,1.0074
2283.00,1.0069
2282.00,1.0065
2281.00,1.0063
2280.00,1.0062
2279.00,1.0060
2278.00,1.0057
2277.00,1.0053
2276.00,1.0051
2275.00,1.0049
2274.00,1.0048
2273.00,1.0048
2272.00,1.0047
2271.00,1.0047
2270.00,1.0046
2269.00,1.0045
2268.00,1.0044
2267.00,1.0042
2266.00,1.0039
2265.00,1.0036
2264.00,1.0034
2263.00,1.0034
2262.00,1.0034
2261.00,1.0035
2260.00,1.0036
2259.00,1.0036
2258.00,1.0032
2257.00,1.0028
2256.00,1.0024
2255.00,1.0023
2254.00,1.0023
2253.00,1.0023
2252.00,1.0022
2251.00,1.0021
2250.00,1.0021
2249.00,1.0020
2248.00,1.0020
2247.00,1.0018
2246.00,1.0014
2245.00,1.0010
2244.00,1.0008
2243.00,1.0007
2242.00,1.0007
2241.00,1.0006
2240.00,1.0004
2239.00,1.0002
2238.00,1.0001
2237.00,1.0002
2236.00,1.0005
2235.00,1.0006
2234.00,1.0006
2233.00,1.0005
2232.00,1.0004
2231.00,1.0002
2230.00,1.0001
2229.00,0.9999
2228.00,0.9998
2227.00,0.9996
2226.00,0.9996
2225.00,0.9996
2224.00,0.9996
2223.00,0.9995
2222.00,0.9992
2221.00,0.9989
2220.00,0.9987
2219.00,0.9986
2218.00,0.9985
2217.00,0.9985
2216.00,0.9984
2215.00,0.9983
2214.00,0.9983
2213.00,0.9983
2212.00,0.9984
2211.00,0.9984
2210.00,0.9982
2209.00,0.9980
2208.00,0.9978
2207.00,0.9978
2206.00,0.9979
2205.00,0.9980
2204.00,0.9979
2203.00,0.9977
2202.00,0.9975
2201.00,0.9977
2200.00,0.9980
2199.00,0.9981
2198.00,0.9979
2197.00,0.9977
2196.00,0.9975
2195.00,0.9974
2194.00,0.9973
2193.00,0.9972
2192.00,0.9971
2191.00,0.9970
2190.00,0.9968
2189.00,0.9968
2188.00,0.9968
2187.00,0.9967
2186.00,0.9966
2185.00,0.9964
2184.00,0.9962
2183.00,0.9962
2182.00,0.9962
2181.00,0.9962
2180.00,0.9962
2179.00,0.9963
2178.00,0.9964
2177.00,0.9965
2176.00,0.9965
2175.00,0.9965
2174.00,0.9964
2173.00,0.9964
2172.00,0.9964
2171.00,0.9963
2170.00,0.9962
2169.00,0.9960
2168.00,0.9959
2167.00,0.9959
2166.00,0.9958
2165.00,0.9956
2164.00,0.9954
2163.00,0.9952
2162.00,0.9950
2161.00,0.9950
2160.00,0.9951
2159.00,0.9953
2158.00,0.9954
2157.00,0.9953
2156.00,0.9950
2155.00,0.9948
2154.00,0.9948
2153.00,0.9950
2152.00,0.9951
2151.00,0.9951
2150.00,0.9949
2149.00,0.9947
2148.00,0.9945
2147.00,0.9941
2146.00,0.9937
2145.00,0.9933
2144.00,0.9931
2143.00,0.9931
2142.00,0.9931
2141.00,0.9930
2140.00,0.9927
2139.00,0.9923
2138.00,0.9918
2137.00,0.9914
2136.00,0.9911
2135.00,0.9911
2134.00,0.9912
2133.00,0.9913
2132.00,0.9912
2131.00,0.9910
2130.00,0.9908
2129.00,0.9908
2128.00,0.9907
2127.00,0.9904
2126.00,0.9901
2125.00,0.9898
2124.00,0.9896
2123.00,0.9895
2122.00,0.9895
2121.00,0.9897
2120.00,0.9899
2119.00,0.9900
2118.00,0.9900
2117.00,0.9900
2116.00,0.9900
2115.00,0.9901
2114.00,0.9903
2113.00,0.9905
2112.00,0.9906
2111.00,0.9905
2110.00,0.9902
2109.00,0.9897
2108.00,0.9893
2107.00,0.9890
2106.00,0.9888
2105.00,0.9888
2104.00,0.9889
2103.00,0.9891
2102.00,0.9893
2101.00,0.9893
2100.00,0.9892
2099.00,0.9891
2098.00,0.9890
2097.00,0.9891
2096.00,0.9891
2095.00,0.9889
2094.00,0.9885
2093.00,0.9882
2092.00,0.9880
2091.00,0.9880
2090.00,0.9881
2089.00,0.9882
2088.00,0.9882
2087.00,0.9881
2086.00,0.9879
2085.00,0.9877
2084.00,0.9875
2083.00,0.9875
2082.00,0.9876
2081.00,0.9877
2080.00,0.9877
2079.00,0.9876
2078.00,0.9873
2077.00,0.9871
2076.00,0.9869
2075.00,0.9868
2074.00,0.9867
2073.00,0.9866
2072.00,0.9867
2071.00,0.9868
2070.00,0.9868
2069.00,0.9869
2068.00,0.9870
2067.00,0.9870
2066.00,0.9870
2065.00,0.9870
2064.00,0.9870
2063.00,0.9871
2062.00,0.9873
2061.00,0.9876
2060.00,0.9878
2059.00,0.9877
2058.00,0.9876
2057.00,0.9875
2056.00,0.9876
2055.00,0.9877
2054.00,0.9877
2053.00,0.9877
2052.00,0.9877
2051.00,0.9877
2050.00,0.9877
2049.00,0.9878
2048.00,0.9879
2047.00,0.9880
2046.00,0.9881
2045.00,0.9881
2044.00,0.9880
2043.00,0.9880
2042.00,0.9880
2041.00,0.9881
2040.00,0.9882
2039.00,0.9882
2038.00,0.9880
2037.00,0.9877
2036.00,0.9875
2035.00,0.9874
2034.00,0.9874
2033.00,0.9875
2032.00,0.9874
2031.00,0.9872
2030.00,0.9870
2029.00,0.9868
2028.00,0.9867
2027.00,0.9866
2026.00,0.9866
2025.00,0.9866
2024.00,0.9865
2023.00,0.9863
2022.00,0.9860
2021.00,0.9856
2020.00,0.9853
2019.00,0.9849
2018.00,0.9845
2017.00,0.9843
2016.00,0.9843
2015.00,0.9843
2014.00,0.9843
2013.00,0.9841
2012.00,0.9839
2011.00,0.9837
2010.00,0.9834
2009.00,0.9831
2008.00,0.9828
2007.00,0.9826
2006.00,0.9824
2005.00,0.9823
2004.00,0.9822
2003.00,0.9823
2002.00,0.9823
2001.00,0.9824
2000.00,0.9824
1999.00,0.9822
1998.00,0.9819
1997.00,0.9818
1996.00,0.9817
1995.00,0.9816
1994.00,0.9813
1993.00,0.9809
1992.00,0.9805
1991.00,0.9803
1990.00,0.9803
1989.00,0.9805
1988.00,0.9806
1987.00,0.9807
1986.00,0.9807
1985.00,0.9808
1984.00,0.9809
1983.00,0.9809
1982.00,0.9808
1981.00,0.9806
1980.00,0.9805
1979.00,0.9804
1978.00,0.9804
1977.00,0.9803
1976.00,0.9801
1975.00,0.9799
1974.00,0.9796
1973.00,0.9795
1972.00,0.9795
1971.00,0.9794
1970.00,0.9793
1969.00,0.9790
1968.00,0.9787
1967.00,0.9784
1966.00,0.9784
1965.00,0.9787
1964.00,0.9790
1963.00,0.9792
1962.00,0.9791
1961.00,0.9790
1960.00,0.9789
1959.00,0.9790
1958.00,0.9790
1957.00,0.9789
1956.00,0.9788
1955.00,0.9787
1954.00,0.9787
1953.00,0.9789
1952.00,0.9791
1951.00,0.9792
1950.00,0.9792
1949.00,0.9793
1948.00,0.9793
1947.00,0.9793
1946.00,0.9793
1945.00,0.9792
1944.00,0.9791
1943.00,0.9789
1942.00,0.9788
1941.00,0.9789
1940.00,0.9793
1939.00,0.9799
1938.00,0.9804
1937.00,0.9806
1936.00,0.9806
1935.00,0.9804
1934.00,0.9803
1933.00,0.9801
1932.00,0.9799
1931.00,0.9797
1930.00,0.9796
1929.00,0.9795
1928.00,0.9793
1927.00,0.9792
1926.00,0.9790
1925.00,0.9788
1924.00,0.9787
1923.00,0.9785
1922.00,0.9783
1921.00,0.9784
1920.00,0.9786
1919.00,0.9788
1918.00,0.9790
1917.00,0.9791
1916.00,0.9792
1915.00,0.9794
1914.00,0.9793
1913.00,0.9792
1912.00,0.9789
1911.00,0.9787
1910.00,0.9786
1909.00,0.9786
1908.00,0.9787
1907.00,0.9789
1906.00,0.9789
1905.00,0.9789
1904.00,0.9788
1903.00,0.9787
1902.00,0.9788
1901.00,0.9789
1900.00,0.9790
1899.00,0.9789
1898.00,0.9787
1897.00,0.9785
1896.00,0.9783
1895.00,0.9781
1894.00,0.9780
1893.00,0.9780
1892.00,0.9779
1891.00,0.9777
1890.00,0.9773
1889.00,0.9770
1888.00,0.9770
1887.00,0.9772
1886.00,0.9775
1885.00,0.9778
1884.00,0.9778
1883.00,0.9775
1882.00,0.9769
1881.00,0.9765
1880.00,0.9763
1879.00,0.9763
1878.00,0.9763
1877.00,0.9762
1876.00,0.9760
1875.00,0.9757
1874.00,0.9755
1873.00,0.9752
1872.00,0.9749
1871.00,0.9746
1870.00,0.9744
1869.00,0.9744
1868.00,0.9744
1867.00,0.9745
1866.00,0.9746
1865.00,0.9746
1864.00,0.9746
1863.00,0.9745
1862.00,0.9743
1861.00,0.9741
1860.00,0.9739
1859.00,0.9736
1858.00,0.9733
1857.00,0.9731
1856.00,0.9731
1855.00,0.9732
1854.00,0.9732
1853.00,0.9733
1852.00,0.9732
1851.00,0.9730
1850.00,0.9727
1849.00,0.9724
1848.00,0.9721
1847.00,0.9719
1846.00,0.9719
1845.00,0.9721
1844.00,0.9720
1843.00,0.9717
1842.00,0.9716
1841.00,0.9718
1840.00,0.9721
1839.00,0.9720
1838.00,0.9717
1837.00,0.9713
1836.00,0.9711
1835.00,0.9709
1834.00,0.9708
1833.00,0.9707
1832.00,0.9707
1831.00,0.9707
1830.00,0.9705
1829.00,0.9701
1828.00,0.9697
1827.00,0.9694
1826.00,0.9691
1825.00,0.9689
1824.00,0.9688
1823.00,0.9690
1822.00,0.9693
1821.00,0.9696
1820.00,0.9696
1819.00,0.9694
1818.00,0.9692
1817.00,0.9692
1816.00,0.9693
1815.00,0.9694
1814.00,0.9695
1813.00,0.9696
1812.00,0.9698
1811.00,0.9697
1810.00,0.9695
1809.00,0.9692
1808.00,0.9691
1807.00,0.9691
1806.00,0.9692
1805.00,0.9694
1804.00,0.9694
1803.00,0.9693
1802.00,0.9692
1801.00,0.9694
1800.00,0.9701
1799.00,0.9706
1798.00,0.9709
1797.00,0.9709
1796.00,0.9709
1795.00,0.9709
1794.00,0.9710
1793.00,0.9713
1792.00,0.9714
1791.00,0.9715
1790.00,0.9717
1789.00,0.9722
1788.00,0.9728
1787.00,0.9730
1786.00,0.9729
1785.00,0.9730
1784.00,0.9734
1783.00,0.9739
1782.00,0.9744
1781.00,0.9747
1780.00,0.9749
1779.00,0.9752
1778.00,0.9757
1777.00,0.9764
1776.00,0.9770
1775.00,0.9775
1774.00,0.9783
1773.00,0.9792
1772.00,0.9801
1771.00,0.9808
1770.00,0.9814
1769.00,0.9823
1768.00,0.9836
1767.00,0.9851
1766.00,0.9867
1765.00,0.9886
1764.00,0.9909
1763.00,0.9937
1762.00,0.9973
1761.00,1.0017
1760.00,1.0070
1759.00,1.0130
1758.00,1.0198
1757.00,1.0276
1756.00,1.0362
1755.00,1.0450
1754.00,1.0538
1753.00,1.0625
1752.00,1.0713
1751.00,1.0798
1750.00,1.0874
1749.00,1.0935
1748.00,1.0979
1747.00,1.1001
1746.00,1.1005
1745.00,1.0990
1744.00,1.0961
1743.00,1.0920
1742.00,1.0872
1741.00,1.0817
1740.00,1.0753
1739.00,1.0683
1738.00,1.0618
1737.00,1.0562
1736.00,1.0509
1735.00,1.0449
1734.00,1.0381
1733.00,1.0317
1732.00,1.0270
1731.00,1.0234
1730.00,1.0200
1729.00,1.0167
1728.00,1.0136
1727.00,1.0109
1726.00,1.0085
1725.00,1.0062
1724.00,1.0040
1723.00,1.0021
1722.00,1.0008
1721.00,1.0001
1720.00,0.9997
1719.00,0.9992
1718.00,0.9984
1717.00,0.9978
1716.00,0.9977
1715.00,0.9977
1714.00,0.9978
1713.00,0.9980
1712.00,0.9983
1711.00,0.9984
1710.00,0.9984
1709.00,0.9985
1708.00,0.9987
1707.00,0.9989
1706.00,0.9988
1705.00,0.9985
1704.00,0.9981
1703.00,0.9979
1702.00,0.9979
1701.00,0.9980
1700.00,0.9971
1699.00,0.9956
1698.00,0.9950
1697.00,0.9952
1696.00,0.9950
1695.00,0.9940
1694.00,0.9930
1693.00,0.9930
1692.00,0.9931
1691.00,0.9926
1690.00,0.9916
1689.00,0.9908
1688.00,0.9904
1687.00,0.9907
1686.00,0.9914
1685.00,0.9925
1684.00,0.9930
1683.00,0.9929
1682.00,0.9932
1681.00,0.9938
1680.00,0.9941
1679.00,0.9942
1678.00,0.9944
1677.00,0.9949
1676.00,0.9956
1675.00,0.9960
1674.00,0.9963
1673.00,0.9969
1672.00,0.9979
1671.00,0.9990
1670.00,1.0000
1669.00,1.0010
1668.00,1.0019
1667.00,1.0028
1666.00,1.0037
1665.00,1.0045
1664.00,1.0053
1663.00,1.0059
1662.00,1.0065
1661.00,1.0074
1660.00,1.0085
1659.00,1.0097
1658.00,1.0106
1657.00,1.0111
1656.00,1.0113
1655.00,1.0119
1654.00,1.0133
1653.00,1.0150
1652.00,1.0157
1651.00,1.0159
1650.00,1.0163
1649.00,1.0165
1648.00,1.0163
1647.00,1.0157
1646.00,1.0151
1645.00,1.0148
1644.00,1.0147
1643.00,1.0147
1642.00,1.0146
1641.00,1.0147
1640.00,1.0148
1639.00,1.0149
1638.00,1.0151
1637.00,1.0159
1636.00,1.0171
1635.00,1.0181
1634.00,1.0187
1633.00,1.0193
1632.00,1.0201
1631.00,1.0209
1630.00,1.0219
1629.00,1.0233
1628.00,1.0249
1627.00,1.0265
1626.00,1.0281
1625.00,1.0300
1624.00,1.0322
1623.00,1.0345
1622.00,1.0369
1621.00,1.0395
1620.00,1.0421
1619.00,1.0449
1618.00,1.0480
1617.00,1.0520
1616.00,1.0564
1615.00,1.0607
1614.00,1.0650
1613.00,1.0694
1612.00,1.0739
1611.00,1.0780
1610.00,1.0820
1609.00,1.0859
1608.00,1.0896
1607.00,1.0929
1606.00,1.0957
1605.00,1.0983
1604.00,1.1007
1603.00,1.1031
1602.00,1.1058
1601.00,1.1091
1600.00,1.1130
1599.00,1.1173
1598.00,1.1220
1597.00,1.1275
1596.00,1.1341
1595.00,1.1417
1594.00,1.1507
1593.00,1.1615
1592.00,1.1748
1591.00,1.1910
1590.00,1.2111
1589.00,1.2369
1588.00,1.2703
1587.00,1.3132
1586.00,1.3676
1585.00,1.4352
1584.00,1.5160
1583.00,1.6041
1582.00,1.6856
1581.00,1.7417
1580.00,1.7581
1579.00,1.7316
1578.00,1.6676
1577.00,1.5791
1576.00,1.4863
1575.00,1.4091
1574.00,1.3541
1573.00,1.3163
1572.00,1.2889
1571.00,1.2680
1570.00,1.2530
1569.00,1.2448
1568.00,1.2438
1567.00,1.2492
1566.00,1.2604
1565.00,1.2772
1564.00,1.2986
1563.00,1.3221
1562.00,1.3454
1561.00,1.3664
1560.00,1.3788
1559.00,1.3692
1558.00,1.3367
1557.00,1.2980
1556.00,1.2611
1555.00,1.2250
1554.00,1.1907
1553.00,1.1614
1552.00,1.1384
1551.00,1.1199
1550.00,1.1043
1549.00,1.0916
1548.00,1.0819
1547.00,1.0745
1546.00,1.0683
1545.00,1.0631
1544.00,1.0592
1543.00,1.0565
1542.00,1.0548
1541.00,1.0534
1540.00,1.0518
1539.00,1.0494
1538.00,1.0467
1537.00,1.0446
1536.00,1.0431
1535.00,1.0417
1534.00,1.0405
1533.00,1.0400
1532.00,1.0405
1531.00,1.0418
1530.00,1.0434
1529.00,1.0452
1528.00,1.0469
1527.00,1.0486
1526.00,1.0504
1525.00,1.0526
1524.00,1.0552
1523.00,1.0579
1522.00,1.0610
1521.00,1.0647
1520.00,1.0691
1519.00,1.0741
1518.00,1.0799
1517.00,1.0865
1516.00,1.0932
1515.00,1.0993
1514.00,1.1043
1513.00,1.1081
1512.00,1.1104
1511.00,1.1105
1510.00,1.1085
1509.00,1.1049
1508.00,1.1000
1507.00,1.0942
1506.00,1.0890
1505.00,1.0853
1504.00,1.0829
1503.00,1.0812
1502.00,1.0801
1501.00,1.0801
1500.00,1.0812
1499.00,1.0834
1498.00,1.0872
1497.00,1.0935
1496.00,1.1026
1495.00,1.1131
1494.00,1.1234
1493.00,1.1327
1492.00,1.1399
1491.00,1.1439
1490.00,1.1446
1489.00,1.1435
1488.00,1.1419
1487.00,1.1405
1486.00,1.1401
1485.00,1.1417
1484.00,1.1452
1483.00,1.1505
1482.00,1.1578
1481.00,1.1674
1480.00,1.1788
1479.00,1.1917
1478.00,1.2072
1477.00,1.2264
1476.00,1.2497
1475.00,1.2774
1474.00,1.3132
1473.00,1.3620
1472.00,1.4240
1471.00,1.4925
1470.00,1.5612
1469.00,1.6267
1468.00,1.6849
1467.00,1.7299
1466.00,1.7587
1465.00,1.7736
1464.00,1.7797
1463.00,1.7826
1462.00,1.7867
1461.00,1.7929
1460.00,1.7995
1459.00,1.8051
1458.00,1.8107
1457.00,1.8160
1456.00,1.8174
1455.00,1.8124
1454.00,1.8027
1453.00,1.7889
1452.00,1.7709
1451.00,1.7501
1450.00,1.7279
1449.00,1.7041
1448.00,1.6778
1447.00,1.6504
1446.00,1.6237
1445.00,1.5976
1444.00,1.5708
1443.00,1.5432
1442.00,1.5154
1441.00,1.4887
1440.00,1.4637
1439.00,1.4399
1438.00,1.4157
1437.00,1.3897
1436.00,1.3635
1435.00,1.3401
1434.00,1.3195
1433.00,1.2993
1432.00,1.2782
1431.00,1.2568
1430.00,1.2364
1429.00,1.2178
1428.00,1.2017
1427.00,1.1886
1426.00,1.1777
1425.00,1.1682
1424.00,1.1603
1423.00,1.1546
1422.00,1.1506
1421.00,1.1473
1420.00,1.1442
1419.00,1.1414
1418.00,1.1393
1417.00,1.1379
1416.00,1.1375
1415.00,1.1376
1414.00,1.1379
1413.00,1.1379
1412.00,1.1381
1411.00,1.1388
1410.00,1.1399
1409.00,1.1403
1408.00,1.1395
1407.00,1.1371
1406.00,1.1330
1405.00,1.1273
1404.00,1.1213
1403.00,1.1158
1402.00,1.1107
1401.00,1.1054
1400.00,1.1001
1399.00,1.0956
1398.00,1.0924
1397.00,1.0904
1396.00,1.0892
1395.00,1.0890
1394.00,1.0897
1393.00,1.0909
1392.00,1.0930
1391.00,1.0965
1390.00,1.1021
1389.00,1.1106
1388.00,1.1232
1387.00,1.1402
1386.00,1.1601
1385.00,1.1812
1384.00,1.2031
1383.00,1.2273
1382.00,1.2546
1381.00,1.2853
1380.00,1.3176
1379.00,1.3473
1378.00,1.3685
1377.00,1.3768
1376.00,1.3715
1375.00,1.3544
1374.00,1.3296
1373.00,1.3026
1372.00,1.2783
1371.00,1.2588
1370.00,1.2446
1369.00,1.2354
1368.00,1.2304
1367.00,1.2279
1366.00,1.2250
1365.00,1.2190
1364.00,1.2085
1363.00,1.1944
1362.00,1.1793
1361.00,1.1655
1360.00,1.1543
1359.00,1.1456
1358.00,1.1389
1357.00,1.1341
1356.00,1.1311
1355.00,1.1295
1354.00,1.1289
1353.00,1.1288
1352.00,1.1290
1351.00,1.1295
1350.00,1.1298
1349.00,1.1297
1348.00,1.1293
1347.00,1.1290
1346.00,1.1289
1345.00,1.1290
1344.00,1.1289
1343.00,1.1283
1342.00,1.1268
1341.00,1.1240
1340.00,1.1204
1339.00,1.1168
1338.00,1.1134
1337.00,1.1103
1336.00,1.1070
1335.00,1.1034
1334.00,1.0995
1333.00,1.0956
1332.00,1.0921
1331.00,1.0893
1330.00,1.0874
1329.00,1.0864
1328.00,1.0862
1327.00,1.0868
1326.00,1.0880
1325.00,1.0894
1324.00,1.0912
1323.00,1.0935
1322.00,1.0960
1321.00,1.0984
1320.00,1.1004
1319.00,1.1022
1318.00,1.1040
1317.00,1.1059
1316.00,1.1079
1315.00,1.1100
1314.00,1.1121
1313.00,1.1141
1312.00,1.1157
1311.00,1.1168
1310.00,1.1173
1309.00,1.1174
1308.00,1.1173
1307.00,1.1172
1306.00,1.1174
1305.00,1.1179
1304.00,1.1185
1303.00,1.1190
1302.00,1.1189
1301.00,1.1180
1300.00,1.1166
1299.00,1.1150
1298.00,1.1132
1297.00,1.1109
1296.00,1.1082
1295.00,1.1057
1294.00,1.1036
1293.00,1.1019
1292.00,1.1005
1291.00,1.0993
1290.00,1.0981
1289.00,1.0968
1288.00,1.0952
1287.00,1.0932
1286.00,1.0910
1285.00,1.0887
1284.00,1.0864
1283.00,1.0844
1282.00,1.0827
1281.00,1.0813
1280.00,1.0805
1279.00,1.0802
1278.00,1.0800
1277.00,1.0797
1276.00,1.0793
1275.00,1.0790
1274.00,1.0788
1273.00,1.0788
1272.00,1.0791
1271.00,1.0800
1270.00,1.0812
1269.00,1.0823
1268.00,1.0828
1267.00,1.0826
1266.00,1.0815
1265.00,1.0798
1264.00,1.0780
1263.00,1.0767
1262.00,1.0760
1261.00,1.0758
1260.00,1.0758
1259.00,1.0761
1258.00,1.0765
1257.00,1.0769
1256.00,1.0774
1255.00,1.0782
1254.00,1.0797
1253.00,1.0814
1252.00,1.0833
1251.00,1.0849
1250.00,1.0861
1249.00,1.0867
1248.00,1.0870
1247.00,1.0873
1246.00,1.0875
1245.00,1.0877
1244.00,1.0876
1243.00,1.0874
1242.00,1.0870
1241.00,1.0865
1240.00,1.0860
1239.00,1.0856
1238.00,1.0852
1237.00,1.0846
1236.00,1.0838
1235.00,1.0829
1234.00,1.0820
1233.00,1.0810
1232.00,1.0800
1231.00,1.0790
1230.00,1.0779
1229.00,1.0768
1228.00,1.0756
1227.00,1.0743
1226.00,1.0727
1225.00,1.0709
1224.00,1.0690
1223.00,1.0674
1222.00,1.0662
1221.00,1.0655
1220.00,1.0653
1219.00,1.0658
1218.00,1.0670
1217.00,1.0685
1216.00,1.0699
1215.00,1.0714
1214.00,1.0728
1213.00,1.0740
1212.00,1.0750
1211.00,1.0756
1210.00,1.0761
1209.00,1.0770
1208.00,1.0787
1207.00,1.0815
1206.00,1.0850
1205.00,1.0890
1204.00,1.0932
1203.00,1.0975
1202.00,1.1018
1201.00,1.1056
1200.00,1.1087
1199.00,1.1106
1198.00,1.1111
1197.00,1.1106
1196.00,1.1094
1195.00,1.1081
1194.00,1.1067
1193.00,1.1052
1192.00,1.1036
1191.00,1.1015
1190.00,1.0986
1189.00,1.0944
1188.00,1.0893
1187.00,1.0841
1186.00,1.0795
1185.00,1.0759
1184.00,1.0735
1183.00,1.0721
1182.00,1.0716
1181.00,1.0718
1180.00,1.0727
1179.00,1.0745
1178.00,1.0770
1177.00,1.0797
1176.00,1.0826
1175.00,1.0856
1174.00,1.0887
1173.00,1.0916
1172.00,1.0943
1171.00,1.0967
1170.00,1.0980
1169.00,1.0980
1168.00,1.0969
1167.00,1.0955
1166.00,1.0945
1165.00,1.0938
1164.00,1.0928
1163.00,1.0912
1162.00,1.0887
1161.00,1.0854
1160.00,1.0818
1159.00,1.0782
1158.00,1.0748
1157.00,1.0715
1156.00,1.0685
1155.00,1.0655
1154.00,1.0624
1153.00,1.0591
1152.00,1.0562
1151.00,1.0539
1150.00,1.0522
1149.00,1.0510
1148.00,1.0499
1147.00,1.0487
1146.00,1.0473
1145.00,1.0455
1144.00,1.0439
1143.00,1.0429
1142.00,1.0427
1141.00,1.0426
1140.00,1.0426
1139.00,1.0432
1138.00,1.0446
1137.00,1.0467
1136.00,1.0489
1135.00,1.0505
1134.00,1.0510
1133.00,1.0502
1132.00,1.0481
1131.00,1.0452
1130.00,1.0416
1129.00,1.0380
1128.00,1.0347
1127.00,1.0322
1126.00,1.0305
1125.00,1.0296
1124.00,1.0293
1123.00,1.0291
1122.00,1.0287
1121.00,1.0282
1120.00,1.0281
1119.00,1.0288
1118.00,1.0301
1117.00,1.0318
1116.00,1.0337
1115.00,1.0357
1114.00,1.0371
1113.00,1.0373
1112.00,1.0361
1111.00,1.0337
1110.00,1.0309
1109.00,1.0280
1108.00,1.0258
1107.00,1.0247
1106.00,1.0248
1105.00,1.0256
1104.00,1.0268
1103.00,1.0283
1102.00,1.0299
1101.00,1.0312
1100.00,1.0321
1099.00,1.0330
1098.00,1.0338
1097.00,1.0345
1096.00,1.0349
1095.00,1.0348
1094.00,1.0343
1093.00,1.0334
1092.00,1.0323
1091.00,1.0316
1090.00,1.0313
1089.00,1.0312
1088.00,1.0310
1087.00,1.0305
1086.00,1.0301
1085.00,1.0300
1084.00,1.0304
1083.00,1.0315
1082.00,1.0327
1081.00,1.0339
1080.00,1.0351
1079.00,1.0364
1078.00,1.0376
1077.00,1.0381
1076.00,1.0373
1075.00,1.0356
1074.00,1.0333
1073.00,1.0308
1072.00,1.0284
1071.00,1.0262
1070.00,1.0240
1069.00,1.0216
1068.00,1.0190
1067.00,1.0164
1066.00,1.0142
1065.00,1.0124
1064.00,1.0108
1063.00,1.0093
1062.00,1.0082
1061.00,1.0075
1060.00,1.0072
1059.00,1.0068
1058.00,1.0062
1057.00,1.0054
1056.00,1.0045
1055.00,1.0037
1054.00,1.0028
1053.00,1.0018
1052.00,1.0011
1051.00,1.0012
1050.00,1.0020
1049.00,1.0031
1048.00,1.0040
1047.00,1.0047
1046.00,1.0050
1045.00,1.0048
1044.00,1.0045
1043.00,1.0043
1042.00,1.0040
1041.00,1.0033
1040.00,1.0024
1039.00,1.0020
1038.00,1.0022
1037.00,1.0027
1036.00,1.0032
1035.00,1.0039
1034.00,1.0052
1033.00,1.0071
1032.00,1.0092
1031.00,1.0114
1030.00,1.0136
1029.00,1.0159
1028.00,1.0182
1027.00,1.0198
1026.00,1.0199
1025.00,1.0178
1024.00,1.0139
1023.00,1.0093
1022.00,1.0052
1021.00,1.0024
1020.00,1.0006
1019.00,0.9998
1018.00,0.9993
1017.00,0.9984
1016.00,0.9969
1015.00,0.9950
1014.00,0.9937
1013.00,0.9941
1012.00,0.9962
1011.00,0.9994
1010.00,1.0020
1009.00,1.0026
1008.00,1.0008
1007.00,0.9973
1006.00,0.9934
1005.00,0.9903
1004.00,0.9884
1003.00,0.9878
1002.00,0.9882
1001.00,0.9890
1000.00,0.9899
999.00,0.9907
998.00,0.9911
997.00,0.9910
996.00,0.9906
995.00,0.9903
994.00,0.9902
993.00,0.9906
992.00,0.9914
991.00,0.9924
990.00,0.9935
989.00,0.9945
988.00,0.9959
987.00,0.9982
986.00,1.0012
985.00,1.0047
984.00,1.0085
983.00,1.0127
982.00,1.0175
981.00,1.0224
980.00,1.0271
979.00,1.0316
978.00,1.0364
977.00,1.0417
976.00,1.0473
975.00,1.0528
974.00,1.0579
973.00,1.0630
972.00,1.0680
971.00,1.0727
970.00,1.0766
969.00,1.0797
968.00,1.0818
967.00,1.0832
966.00,1.0835
965.00,1.0824
964.00,1.0799
963.00,1.0764
962.00,1.0724
961.00,1.0682
960.00,1.0640
959.00,1.0597
958.00,1.0547
957.00,1.0489
956.00,1.0426
955.00,1.0360
954.00,1.0293
953.00,1.0221
952.00,1.0146
951.00,1.0071
950.00,1.0002
949.00,0.9945
948.00,0.9899
947.00,0.9864
946.00,0.9836
945.00,0.9815
944.00,0.9804
943.00,0.9807
942.00,0.9820
941.00,0.9833
940.00,0.9843
939.00,0.9848
938.00,0.9850
937.00,0.9849
936.00,0.9842
935.00,0.9832
934.00,0.9822
933.00,0.9813
932.00,0.9804
931.00,0.9796
930.00,0.9791
929.00,0.9790
928.00,0.9790
927.00,0.9794
926.00,0.9804
925.00,0.9820
924.00,0.9841
923.00,0.9868
922.00,0.9896
921.00,0.9920
920.00,0.9935
919.00,0.9936
918.00,0.9924
917.00,0.9902
916.00,0.9876
915.00,0.9850
914.00,0.9826
913.00,0.9804
912.00,0.9785
911.00,0.9771
910.00,0.9758
909.00,0.9744
908.00,0.9728
907.00,0.9713
906.00,0.9704
905.00,0.9701
904.00,0.9701
903.00,0.9701
902.00,0.9699
901.00,0.9698
900.00,0.9699
899.00,0.9702
898.00,0.9707
897.00,0.9711
896.00,0.9714
895.00,0.9719
894.00,0.9728
893.00,0.9739
892.00,0.9749
891.00,0.9755
890.00,0.9756
889.00,0.9748
888.00,0.9734
887.00,0.9719
886.00,0.9705
885.00,0.9692
884.00,0.9680
883.00,0.9670
882.00,0.9664
881.00,0.9664
880.00,0.9666
879.00,0.9668
878.00,0.9667
877.00,0.9666
876.00,0.9667
875.00,0.9671
874.00,0.9676
873.00,0.9679
872.00,0.9679
871.00,0.9678
870.00,0.9677
869.00,0.9679
868.00,0.9687
867.00,0.9699
866.00,0.9711
865.00,0.9719
864.00,0.9725
863.00,0.9732
862.00,0.9736
861.00,0.9729
860.00,0.9707
859.00,0.9677
858.00,0.9646
857.00,0.9615
856.00,0.9582
855.00,0.9551
854.00,0.9529
853.00,0.9518
852.00,0.9515
851.00,0.9518
850.00,0.9526
849.00,0.9539
848.00,0.9553
847.00,0.9562
846.00,0.9566
845.00,0.9565
844.00,0.9563
843.00,0.9566
842.00,0.9581
841.00,0.9614
840.00,0.9667
839.00,0.9737
838.00,0.9814
837.00,0.9882
836.00,0.9922
835.00,0.9924
834.00,0.9893
833.00,0.9844
832.00,0.9788
831.00,0.9731
830.00,0.9677
829.00,0.9632
828.00,0.9601
827.00,0.9589
826.00,0.9594
825.00,0.9614
824.00,0.9639
823.00,0.9658
822.00,0.9667
821.00,0.9667
820.00,0.9670
819.00,0.9678
818.00,0.9688
817.00,0.9691
816.00,0.9683
815.00,0.9669
814.00,0.9652
813.00,0.9637
812.00,0.9623
811.00,0.9613
810.00,0.9604
809.00,0.9590
808.00,0.9571
807.00,0.9551
806.00,0.9536
805.00,0.9526
804.00,0.9521
803.00,0.9516
802.00,0.9505
801.00,0.9487
800.00,0.9470
799.00,0.9461
798.00,0.9462
797.00,0.9469
796.00,0.9475
795.00,0.9477
794.00,0.9478
793.00,0.9480
792.00,0.9487
791.00,0.9503
790.00,0.9527
789.00,0.9552
788.00,0.9571
787.00,0.9588
786.00,0.9608
785.00,0.9632
784.00,0.9651
783.00,0.9660
782.00,0.9666
781.00,0.9678
780.00,0.9704
779.00,0.9735
778.00,0.9760
777.00,0.9769
776.00,0.9766
775.00,0.9764
774.00,0.9771
773.00,0.9788
772.00,0.9805
771.00,0.9816
770.00,0.9822
769.00,0.9825
768.00,0.9831
767.00,0.9839
766.00,0.9849
765.00,0.9856
764.00,0.9861
763.00,0.9863
762.00,0.9870
761.00,0.9887
760.00,0.9911
759.00,0.9936
758.00,0.9952
757.00,0.9959
756.00,0.9967
755.00,0.9979
754.00,0.9991
753.00,0.9990
752.00,0.9972
751.00,0.9944
750.00,0.9917
749.00,0.9903
748.00,0.9902
747.00,0.9910
746.00,0.9917
745.00,0.9920
744.00,0.9922
743.00,0.9929
742.00,0.9942
741.00,0.9957
740.00,0.9970
739.00,0.9980
738.00,0.9988
737.00,0.9998
736.00,1.0014
735.00,1.0041
734.00,1.0076
733.00,1.0110
732.00,1.0143
731.00,1.0178
730.00,1.0225
729.00,1.0287
728.00,1.0365
727.00,1.0457
726.00,1.0564
725.00,1.0681
724.00,1.0796
723.00,1.0889
722.00,1.0936
721.00,1.0914
720.00,1.0821
719.00,1.0677
718.00,1.0512
717.00,1.0351
716.00,1.0209
715.00,1.0093
714.00,1.0002
713.00,0.9929
712.00,0.9865
711.00,0.9810
710.00,0.9760
709.00,0.9717
708.00,0.9678
707.00,0.9646
706.00,0.9623
705.00,0.9604
704.00,0.9584
703.00,0.9562
702.00,0.9541
701.00,0.9526
700.00,0.9515
699.00,0.9503
698.00,0.9487
697.00,0.9467
696.00,0.9445
695.00,0.9424
694.00,0.9406
693.00,0.9396
692.00,0.9402
691.00,0.9426
690.00,0.9460
689.00,0.9486
688.00,0.9488
687.00,0.9462
686.00,0.9415
685.00,0.9356
684.00,0.9299
683.00,0.9249
682.00,0.9210
681.00,0.9182
680.00,0.9165
679.00,0.9157
678.00,0.9157
677.00,0.9160
676.00,0.9160
675.00,0.9157
674.00,0.9154
673.00,0.9155
672.00,0.9160
671.00,0.9172
670.00,0.9198
669.00,0.9242
668.00,0.9296
667.00,0.9319
666.00,0.9291
665.00,0.9254
664.00,0.9237
663.00,0.9239
662.00,0.9244
661.00,0.9243
660.00,0.9241
659.00,0.9244
658.00,0.9251
657.00,0.9257
656.00,0.9262
655.00,0.9270
654.00,0.9280
653.00,0.9291
652.00,0.9299
651.00,0.9305
650.00,0.9310
649.00,0.9317
648.00,0.9327
647.00,0.9338
646.00,0.9345
645.00,0.9348
644.00,0.9355
643.00,0.9372
642.00,0.9398
641.00,0.9426
640.00,0.9448
639.00,0.9462
638.00,0.9468
637.00,0.9469
636.00,0.9471
635.00,0.9481
634.00,0.9498
633.00,0.9517
632.00,0.9532
631.00,0.9541
630.00,0.9544
629.00,0.9544
628.00,0.9547
627.00,0.9555
626.00,0.9566
625.00,0.9581
624.00,0.9606
623.00,0.9641
622.00,0.9674
621.00,0.9693
620.00,0.9699
619.00,0.9703
618.00,0.9709
617.00,0.9715
616.00,0.9717
615.00,0.9715
614.00,0.9704
613.00,0.9681
612.00,0.9652
611.00,0.9629
610.00,0.9617
609.00,0.9611
608.00,0.9605
607.00,0.9597
606.00,0.9590
605.00,0.9582
604.00,0.9575
603.00,0.9568
602.00,0.9561
601.00,0.9550
600.00,0.9537
599.00,0.9533
598.00,0.9547
597.00,0.9576
596.00,0.9613
595.00,0.9648
594.00,0.9677
593.00,0.9694
592.00,0.9703
591.00,0.9710
590.00,0.9720
589.00,0.9733
588.00,0.9754
587.00,0.9785
586.00,0.9821
585.00,0.9855
584.00,0.9878
583.00,0.9893
582.00,0.9904
581.00,0.9918
580.00,0.9938
579.00,0.9963
578.00,0.9980
577.00,0.9983
576.00,0.9981
575.00,0.9989
574.00,1.0016
573.00,1.0052
572.00,1.0087
571.00,1.0112
570.00,1.0124
569.00,1.0116
568.00,1.0096
567.00,1.0077
566.00,1.0066
565.00,1.0061
564.00,1.0060
563.00,1.0069
562.00,1.0097
561.00,1.0133
560.00,1.0162
559.00,1.0176
558.00,1.0177
557.00,1.0168
556.00,1.0152
555.00,1.0138
554.00,1.0129
553.00,1.0120
552.00,1.0103
551.00,1.0086
550.00,1.0086
