Created as New Dataset,
cm-1,A
4000.00,1.7208
3999.00,1.7210
3998.00,1.7212
3997.00,1.7215
3996.00,1.7216
3995.00,1.7216
3994.00,1.7213
3993.00,1.7208
3992.00,1.7204
3991.00,1.7202
3990.00,1.7201
3989.00,1.7201
3988.00,1.7201
3987.00,1.7199
3986.00,1.7197
3985.00,1.7194
3984.00,1.7190
3983.00,1.7185
3982.00,1.7180
3981.00,1.7177
3980.00,1.7174
3979.00,1.7174
3978.00,1.7174
3977.00,1.7175
3976.00,1.7176
3975.00,1.7176
3974.00,1.7174
3973.00,1.7172
3972.00,1.7169
3971.00,1.7165
3970.00,1.7161
3969.00,1.7155
3968.00,1.7149
3967.00,1.7144
3966.00,1.7141
3965.00,1.7142
3964.00,1.7144
3963.00,1.7145
3962.00,1.7146
3961.00,1.7146
3960.00,1.7145
3959.00,1.7144
3958.00,1.7143
3957.00,1.7142
3956.00,1.7141
3955.00,1.7139
3954.00,1.7135
3953.00,1.7128
3952.00,1.7119
3951.00,1.7108
3950.00,1.7100
3949.00,1.7098
3948.00,1.7101
3947.00,1.7108
3946.00,1.7115
3945.00,1.7118
3944.00,1.7116
3943.00,1.7113
3942.00,1.7111
3941.00,1.7111
3940.00,1.7110
3939.00,1.7106
3938.00,1.7100
3937.00,1.7096
3936.00,1.7095
3935.00,1.7096
3934.00,1.7096
3933.00,1.7094
3932.00,1.7091
3931.00,1.7087
3930.00,1.7085
3929.00,1.7086
3928.00,1.7089
3927.00,1.7093
3926.00,1.7097
3925.00,1.7097
3924.00,1.7091
3923.00,1.7082
3922.00,1.7075
3921.00,1.7072
3920.00,1.7074
3919.00,1.7077
3918.00,1.7079
3917.00,1.7080
3916.00,1.7082
3915.00,1.7083
3914.00,1.7082
3913.00,1.7080
3912.00,1.7078
3911.00,1.7079
3910.00,1.7082
3909.00,1.7085
3908.00,1.7087
3907.00,1.7084
3906.00,1.7078
3905.00,1.7071
3904.00,1.7067
3903.00,1.7066
3902.00,1.7068
3901.00,1.7073
3900.00,1.7080
3899.00,1.7086
3898.00,1.7088
3897.00,1.7087
3896.00,1.7085
3895.00,1.7083
3894.00,1.7081
3893.00,1.7079
3892.00,1.7077
3891.00,1.7075
3890.00,1.7071
3889.00,1.7065
3888.00,1.7060
3887.00,1.7061
3886.00,1.7066
3885.00,1.7070
3884.00,1.7067
3883.00,1.7058
3882.00,1.7052
3881.00,1.7050
3880.00,1.7051
3879.00,1.7049
3878.00,1.7043
3877.00,1.7038
3876.00,1.7038
3875.00,1.7042
3874.00,1.7046
3873.00,1.7045
3872.00,1.7039
3871.00,1.7035
3870.00,1.7037
3869.00,1.7042
3868.00,1.7041
3867.00,1.7034
3866.00,1.7032
3865.00,1.7037
3864.00,1.7047
3863.00,1.7051
3862.00,1.7046
3861.00,1.7038
3860.00,1.7031
3859.00,1.7029
3858.00,1.7030
3857.00,1.7032
3856.00,1.7033
3855.00,1.7033
3854.00,1.7035
3853.00,1.7043
3852.00,1.7049
3851.00,1.7047
3850.00,1.7041
3849.00,1.7037
3848.00,1.7032
3847.00,1.7025
3846.00,1.7015
3845.00,1.7006
3844.00,1.7000
3843.00,1.6998
3842.00,1.7000
3841.00,1.7003
3840.00,1.7006
3839.00,1.7008
3838.00,1.7008
3837.00,1.7006
3836.00,1.7004
3835.00,1.7001
3834.00,1.7000
3833.00,1.6998
3832.00,1.6995
3831.00,1.6992
3830.00,1.6989
3829.00,1.6987
3828.00,1.6984
3827.00,1.6981
3826.00,1.6978
3825.00,1.6976
3824.00,1.6974
3823.00,1.6971
3822.00,1.6968
3821.00,1.6969
3820.00,1.6971
3819.00,1.6971
3818.00,1.6969
3817.00,1.6973
3816.00,1.6983
3815.00,1.6991
3814.00,1.6991
3813.00,1.6981
3812.00,1.6971
3811.00,1.6964
3810.00,1.6959
3809.00,1.6953
3808.00,1.6947
3807.00,1.6946
3806.00,1.6948
3805.00,1.6950
3804.00,1.6950
3803.00,1.6951
3802.00,1.6955
3801.00,1.6962
3800.00,1.6965
3799.00,1.6962
3798.00,1.6957
3797.00,1.6957
3796.00,1.6957
3795.00,1.6953
3794.00,1.6943
3793.00,1.6932
3792.00,1.6923
3791.00,1.6918
3790.00,1.6915
3789.00,1.6912
3788.00,1.6910
3787.00,1.6910
3786.00,1.6913
3785.00,1.6914
3784.00,1.6910
3783.00,1.6901
3782.00,1.6890
3781.00,1.6883
3780.00,1.6884
3779.00,1.6893
3778.00,1.6900
3777.00,1.6902
3776.00,1.6900
3775.00,1.6896
3774.00,1.6894
3773.00,1.6891
3772.00,1.6888
3771.00,1.6886
3770.00,1.6884
3769.00,1.6883
3768.00,1.6879
3767.00,1.6875
3766.00,1.6875
3765.00,1.6878
3764.00,1.6882
3763.00,1.6882
3762.00,1.6880
3761.00,1.6879
3760.00,1.6878
3759.00,1.6877
3758.00,1.6874
3757.00,1.6872
3756.00,1.6870
3755.00,1.6870
3754.00,1.6870
3753.00,1.6870
3752.00,1.6869
3751.00,1.6869
3750.00,1.6873
3749.00,1.6879
3748.00,1.6886
3747.00,1.6892
3746.00,1.6897
3745.00,1.6900
3744.00,1.6900
3743.00,1.6894
3742.00,1.6880
3741.00,1.6866
3740.00,1.6861
3739.00,1.6860
3738.00,1.6857
3737.00,1.6849
3736.00,1.6843
3735.00,1.6841
3734.00,1.6845
3733.00,1.6851
3732.00,1.6856
3731.00,1.6858
3730.00,1.6855
3729.00,1.6849
3728.00,1.6843
3727.00,1.6840
3726.00,1.6838
3725.00,1.6834
3724.00,1.6826
3723.00,1.6819
3722.00,1.6817
3721.00,1.6819
3720.00,1.6824
3719.00,1.6828
3718.00,1.6828
3717.00,1.6825
3716.00,1.6819
3715.00,1.6813
3714.00,1.6812
3713.00,1.6813
3712.00,1.6814
3711.00,1.6813
3710.00,1.6812
3709.00,1.6813
3708.00,1.6814
3707.00,1.6815
3706.00,1.6814
3705.00,1.6812
3704.00,1.6809
3703.00,1.6806
3702.00,1.6803
3701.00,1.6802
3700.00,1.6804
3699.00,1.6808
3698.00,1.6814
3697.00,1.6819
3696.00,1.6820
3695.00,1.6815
3694.00,1.6805
3693.00,1.6797
3692.00,1.6794
3691.00,1.6796
3690.00,1.6802
3689.00,1.6810
3688.00,1.6817
3687.00,1.6820
3686.00,1.6818
3685.00,1.6815
3684.00,1.6814
3683.00,1.6813
3682.00,1.6812
3681.00,1.6811
3680.00,1.6810
3679.00,1.6809
3678.00,1.6803
3677.00,1.6797
3676.00,1.6798
3675.00,1.6810
3674.00,1.6823
3673.00,1.6829
3672.00,1.6831
3671.00,1.6832
3670.00,1.6833
3669.00,1.6834
3668.00,1.6832
3667.00,1.6828
3666.00,1.6827
3665.00,1.6828
3664.00,1.6830
3663.00,1.6830
3662.00,1.6827
3661.00,1.6824
3660.00,1.6822
3659.00,1.6825
3658.00,1.6832
3657.00,1.6843
3656.00,1.6858
3655.00,1.6872
3654.00,1.6885
3653.00,1.6898
3652.00,1.6914
3651.00,1.6930
3650.00,1.6941
3649.00,1.6950
3648.00,1.6956
3647.00,1.6962
3646.00,1.6963
3645.00,1.6958
3644.00,1.6948
3643.00,1.6936
3642.00,1.6925
3641.00,1.6916
3640.00,1.6907
3639.00,1.6900
3638.00,1.6893
3637.00,1.6888
3636.00,1.6883
3635.00,1.6878
3634.00,1.6874
3633.00,1.6870
3632.00,1.6868
3631.00,1.6868
3630.00,1.6875
3629.00,1.6889
3628.00,1.6905
3627.00,1.6916
3626.00,1.6923
3625.00,1.6931
3624.00,1.6941
3623.00,1.6946
3622.00,1.6943
3621.00,1.6933
3620.00,1.6918
3619.00,1.6902
3618.00,1.6888
3617.00,1.6874
3616.00,1.6863
3615.00,1.6858
3614.00,1.6859
3613.00,1.6862
3612.00,1.6863
3611.00,1.6860
3610.00,1.6856
3609.00,1.6853
3608.00,1.6850
3607.00,1.6848
3606.00,1.6847
3605.00,1.6847
3604.00,1.6848
3603.00,1.6848
3602.00,1.6845
3601.00,1.6839
3600.00,1.6832
3599.00,1.6823
3598.00,1.6816
3597.00,1.6810
3596.00,1.6807
3595.00,1.6805
3594.00,1.6804
3593.00,1.6803
3592.00,1.6802
3591.00,1.6802
3590.00,1.6801
3589.00,1.6800
3588.00,1.6802
3587.00,1.6807
3586.00,1.6810
3585.00,1.6808
3584.00,1.6804
3583.00,1.6800
3582.00,1.6797
3581.00,1.6794
3580.00,1.6789
3579.00,1.6784
3578.00,1.6778
3577.00,1.6774
3576.00,1.6772
3575.00,1.6772
3574.00,1.6773
3573.00,1.6775
3572.00,1.6778
3571.00,1.6780
3570.00,1.6783
3569.00,1.6784
3568.00,1.6786
3567.00,1.6790
3566.00,1.6794
3565.00,1.6797
3564.00,1.6798
3563.00,1.6798
3562.00,1.6799
3561.00,1.6799
3560.00,1.6799
3559.00,1.6796
3558.00,1.6793
3557.00,1.6792
3556.00,1.6794
3555.00,1.6798
3554.00,1.6802
3553.00,1.6805
3552.00,1.6807
3551.00,1.6808
3550.00,1.6810
3549.00,1.6813
3548.00,1.6819
3547.00,1.6827
3546.00,1.6833
3545.00,1.6838
3544.00,1.6840
3543.00,1.6840
3542.00,1.6838
3541.00,1.6837
3540.00,1.6838
3539.00,1.6841
3538.00,1.6845
3537.00,1.6849
3536.00,1.6850
3535.00,1.6848
3534.00,1.6844
3533.00,1.6839
3532.00,1.6837
3531.00,1.6837
3530.00,1.6840
3529.00,1.6844
3528.00,1.6850
3527.00,1.6856
3526.00,1.6861
3525.00,1.6865
3524.00,1.6870
3523.00,1.6876
3522.00,1.6883
3521.00,1.6889
3520.00,1.6893
3519.00,1.6894
3518.00,1.6895
3517.00,1.6897
3516.00,1.6898
3515.00,1.6899
3514.00,1.6897
3513.00,1.6895
3512.00,1.6895
3511.00,1.6899
3510.00,1.6905
3509.00,1.6913
3508.00,1.6919
3507.00,1.6925
3506.00,1.6929
3505.00,1.6933
3504.00,1.6937
3503.00,1.6941
3502.00,1.6943
3501.00,1.6944
3500.00,1.6946
3499.00,1.6951
3498.00,1.6957
3497.00,1.6964
3496.00,1.6971
3495.00,1.6978
3494.00,1.6985
3493.00,1.6991
3492.00,1.6995
3491.00,1.6997
3490.00,1.6999
3489.00,1.7003
3488.00,1.7011
3487.00,1.7020
3486.00,1.7027
3485.00,1.7032
3484.00,1.7036
3483.00,1.7042
3482.00,1.7048
3481.00,1.7053
3480.00,1.7059
3479.00,1.7065
3478.00,1.7072
3477.00,1.7076
3476.00,1.7077
3475.00,1.7077
3474.00,1.7078
3473.00,1.7080
3472.00,1.7084
3471.00,1.7088
3470.00,1.7095
3469.00,1.7102
3468.00,1.7106
3467.00,1.7108
3466.00,1.7108
3465.00,1.7109
3464.00,1.7111
3463.00,1.7115
3462.00,1.7121
3461.00,1.7128
3460.00,1.7133
3459.00,1.7137
3458.00,1.7139
3457.00,1.7144
3456.00,1.7149
3455.00,1.7155
3454.00,1.7161
3453.00,1.7166
3452.00,1.7171
3451.00,1.7176
3450.00,1.7179
3449.00,1.7183
3448.00,1.7187
3447.00,1.7192
3446.00,1.7199
3445.00,1.7206
3444.00,1.7215
3443.00,1.7225
3442.00,1.7234
3441.00,1.7240
3440.00,1.7244
3439.00,1.7250
3438.00,1.7259
3437.00,1.7270
3436.00,1.7281
3435.00,1.7289
3434.00,1.7296
3433.00,1.7299
3432.00,1.7299
3431.00,1.7298
3430.00,1.7300
3429.00,1.7305
3428.00,1.7312
3427.00,1.7320
3426.00,1.7330
3425.00,1.7342
3424.00,1.7355
3423.00,1.7366
3422.00,1.7375
3421.00,1.7381
3420.00,1.7386
3419.00,1.7390
3418.00,1.7394
3417.00,1.7398
3416.00,1.7403
3415.00,1.7410
3414.00,1.7422
3413.00,1.7436
3412.00,1.7449
3411.00,1.7460
3410.00,1.7467
3409.00,1.7473
3408.00,1.7480
3407.00,1.7488
3406.00,1.7497
3405.00,1.7505
3404.00,1.7514
3403.00,1.7524
3402.00,1.7535
3401.00,1.7546
3400.00,1.7557
3399.00,1.7565
3398.00,1.7570
3397.00,1.7575
3396.00,1.7579
3395.00,1.7586
3394.00,1.7594
3393.00,1.7603
3392.00,1.7610
3391.00,1.7614
3390.00,1.7617
3389.00,1.7620
3388.00,1.7627
3387.00,1.7635
3386.00,1.7644
3385.00,1.7655
3384.00,1.7668
3383.00,1.7680
3382.00,1.7690
3381.00,1.7695
3380.00,1.7698
3379.00,1.7702
3378.00,1.7710
3377.00,1.7722
3376.00,1.7732
3375.00,1.7739
3374.00,1.7745
3373.00,1.7751
3372.00,1.7760
3371.00,1.7771
3370.00,1.7782
3369.00,1.7791
3368.00,1.7800
3367.00,1.7810
3366.00,1.7823
3365.00,1.7837
3364.00,1.7848
3363.00,1.7853
3362.00,1.7856
3361.00,1.7858
3360.00,1.7863
3359.00,1.7871
3358.00,1.7879
3357.00,1.7888
3356.00,1.7898
3355.00,1.7908
3354.00,1.7918
3353.00,1.7927
3352.00,1.7939
3351.00,1.7951
3350.00,1.7962
3349.00,1.7969
3348.00,1.7971
3347.00,1.7972
3346.00,1.7978
3345.00,1.7988
3344.00,1.7998
3343.00,1.8006
3342.00,1.8012
3341.00,1.8018
3340.00,1.8025
3339.00,1.8033
3338.00,1.8038
3337.00,1.8038
3336.00,1.8034
3335.00,1.8031
3334.00,1.8031
3333.00,1.8034
3332.00,1.8038
3331.00,1.8039
3330.00,1.8040
3329.00,1.8043
3328.00,1.8047
3327.00,1.8052
3326.00,1.8055
3325.00,1.8055
3324.00,1.8051
3323.00,1.8044
3322.00,1.8036
3321.00,1.8030
3320.00,1.8025
3319.00,1.8022
3318.00,1.8020
3317.00,1.8017
3316.00,1.8016
3315.00,1.8013
3314.00,1.8011
3313.00,1.8008
3312.00,1.8006
3311.00,1.8001
3310.00,1.7993
3309.00,1.7983
3308.00,1.7974
3307.00,1.7967
3306.00,1.7960
3305.00,1.7955
3304.00,1.7950
3303.00,1.7944
3302.00,1.7937
3301.00,1.7929
3300.00,1.7923
3299.00,1.7919
3298.00,1.7918
3297.00,1.7917
3296.00,1.7916
3295.00,1.7914
3294.00,1.7914
3293.00,1.7916
3292.00,1.7918
3291.00,1.7919
3290.00,1.7916
3289.00,1.7913
3288.00,1.7911
3287.00,1.7911
3286.00,1.7909
3285.00,1.7906
3284.00,1.7901
3283.00,1.7898
3282.00,1.7898
3281.00,1.7901
3280.00,1.7904
3279.00,1.7907
3278.00,1.7909
3277.00,1.7911
3276.00,1.7914
3275.00,1.7918
3274.00,1.7921
3273.00,1.7922
3272.00,1.7919
3271.00,1.7915
3270.00,1.7913
3269.00,1.7913
3268.00,1.7913
3267.00,1.7914
3266.00,1.7916
3265.00,1.7918
3264.00,1.7921
3263.00,1.7923
3262.00,1.7925
3261.00,1.7928
3260.00,1.7932
3259.00,1.7937
3258.00,1.7940
3257.00,1.7941
3256.00,1.7939
3255.00,1.7936
3254.00,1.7933
3253.00,1.7932
3252.00,1.7933
3251.00,1.7934
3250.00,1.7933
3249.00,1.7931
3248.00,1.7927
3247.00,1.7925
3246.00,1.7925
3245.00,1.7926
3244.00,1.7926
3243.00,1.7924
3242.00,1.7922
3241.00,1.7920
3240.00,1.7919
3239.00,1.7918
3238.00,1.7916
3237.00,1.7913
3236.00,1.7911
3235.00,1.7908
3234.00,1.7905
3233.00,1.7901
3232.00,1.7897
3231.00,1.7892
3230.00,1.7885
3229.00,1.7876
3228.00,1.7867
3227.00,1.7860
3226.00,1.7855
3225.00,1.7852
3224.00,1.7851
3223.00,1.7850
3222.00,1.7848
3221.00,1.7842
3220.00,1.7834
3219.00,1.7825
3218.00,1.7818
3217.00,1.7813
3216.00,1.7810
3215.00,1.7807
3214.00,1.7802
3213.00,1.7794
3212.00,1.7785
3211.00,1.7776
3210.00,1.7769
3209.00,1.7762
3208.00,1.7755
3207.00,1.7749
3206.00,1.7745
3205.00,1.7739
3204.00,1.7731
3203.00,1.7721
3202.00,1.7709
3201.00,1.7699
3200.00,1.7691
3199.00,1.7683
3198.00,1.7675
3197.00,1.7668
3196.00,1.7662
3195.00,1.7656
3194.00,1.7649
3193.00,1.7641
3192.00,1.7634
3191.00,1.7628
3190.00,1.7624
3189.00,1.7618
3188.00,1.7610
3187.00,1.7599
3186.00,1.7589
3185.00,1.7580
3184.00,1.7570
3183.00,1.7560
3182.00,1.7550
3181.00,1.7542
3180.00,1.7535
3179.00,1.7531
3178.00,1.7528
3177.00,1.7523
3176.00,1.7516
3175.00,1.7506
3174.00,1.7494
3173.00,1.7484
3172.00,1.7477
3171.00,1.7472
3170.00,1.7468
3169.00,1.7464
3168.00,1.7456
3167.00,1.7446
3166.00,1.7435
3165.00,1.7425
3164.00,1.7415
3163.00,1.7408
3162.00,1.7402
3161.00,1.7397
3160.00,1.7390
3159.00,1.7382
3158.00,1.7373
3157.00,1.7365
3156.00,1.7358
3155.00,1.7352
3154.00,1.7347
3153.00,1.7342
3152.00,1.7338
3151.00,1.7332
3150.00,1.7326
3149.00,1.7322
3148.00,1.7320
3147.00,1.7317
3146.00,1.7312
3145.00,1.7302
3144.00,1.7291
3143.00,1.7283
3142.00,1.7278
3141.00,1.7276
3140.00,1.7276
3139.00,1.7276
3138.00,1.7275
3137.00,1.7270
3136.00,1.7264
3135.00,1.7259
3134.00,1.7256
3133.00,1.7252
3132.00,1.7248
3131.00,1.7242
3130.00,1.7238
3129.00,1.7236
3128.00,1.7237
3127.00,1.7239
3126.00,1.7239
3125.00,1.7237
3124.00,1.7234
3123.00,1.7232
3122.00,1.7231
3121.00,1.7228
3120.00,1.7224
3119.00,1.7221
3118.00,1.7222
3117.00,1.7225
3116.00,1.7230
3115.00,1.7234
3114.00,1.7236
3113.00,1.7237
3112.00,1.7237
3111.00,1.7237
3110.00,1.7237
3109.00,1.7239
3108.00,1.7241
3107.00,1.7244
3106.00,1.7249
3105.00,1.7255
3104.00,1.7262
3103.00,1.7268
3102.00,1.7274
3101.00,1.7280
3100.00,1.7285
3099.00,1.7290
3098.00,1.7296
3097.00,1.7304
3096.00,1.7312
3095.00,1.7321
3094.00,1.7329
3093.00,1.7338
3092.00,1.7345
3091.00,1.7351
3090.00,1.7360
3089.00,1.7373
3088.00,1.7388
3087.00,1.7406
3086.00,1.7423
3085.00,1.7439
3084.00,1.7455
3083.00,1.7473
3082.00,1.7493
3081.00,1.7515
3080.00,1.7538
3079.00,1.7559
3078.00,1.7580
3077.00,1.7600
3076.00,1.7620
3075.00,1.7641
3074.00,1.7661
3073.00,1.7679
3072.00,1.7696
3071.00,1.7713
3070.00,1.7733
3069.00,1.7755
3068.00,1.7775
3067.00,1.7794
3066.00,1.7812
3065.00,1.7827
3064.00,1.7841
3063.00,1.7854
3062.00,1.7867
3061.00,1.7882
3060.00,1.7895
3059.00,1.7905
3058.00,1.7912
3057.00,1.7920
3056.00,1.7933
3055.00,1.7951
3054.00,1.7970
3053.00,1.7988
3052.00,1.8004
3051.00,1.8018
3050.00,1.8028
3049.00,1.8036
3048.00,1.8044
3047.00,1.8055
3046.00,1.8070
3045.00,1.8088
3044.00,1.8107
3043.00,1.8125
3042.00,1.8140
3041.00,1.8153
3040.00,1.8165
3039.00,1.8178
3038.00,1.8193
3037.00,1.8208
3036.00,1.8223
3035.00,1.8238
3034.00,1.8256
3033.00,1.8278
3032.00,1.8304
3031.00,1.8333
3030.00,1.8363
3029.00,1.8391
3028.00,1.8415
3027.00,1.8438
3026.00,1.8463
3025.00,1.8493
3024.00,1.8526
3023.00,1.8562
3022.00,1.8602
3021.00,1.8646
3020.00,1.8693
3019.00,1.8741
3018.00,1.8788
3017.00,1.8834
3016.00,1.8879
3015.00,1.8926
3014.00,1.8976
3013.00,1.9029
3012.00,1.9083
3011.00,1.9134
3010.00,1.9183
3009.00,1.9232
3008.00,1.9281
3007.00,1.9332
3006.00,1.9384
3005.00,1.9438
3004.00,1.9494
3003.00,1.9552
3002.00,1.9613
3001.00,1.9673
3000.00,1.9731
2999.00,1.9788
2998.00,1.9852
2997.00,1.9925
2996.00,2.0008
2995.00,2.0094
2994.00,2.0185
2993.00,2.0285
2992.00,2.0400
2991.00,2.0531
2990.00,2.0673
2989.00,2.0824
2988.00,2.0991
2987.00,2.1180
2986.00,2.1392
2985.00,2.1621
2984.00,2.1861
2983.00,2.2111
2982.00,2.2379
2981.00,2.2673
2980.00,2.2997
2979.00,2.3349
2978.00,2.3727
2977.00,2.4129
2976.00,2.4554
2975.00,2.5011
2974.00,2.5511
2973.00,2.6058
2972.00,2.6643
2971.00,2.7254
2970.00,2.7893
2969.00,2.8569
2968.00,2.9273
2967.00,2.9970
2966.00,3.0624
2965.00,3.1227
2964.00,3.1809
2963.00,3.2412
2962.00,3.3077
2961.00,3.3840
2960.00,3.4697
2959.00,3.5571
2958.00,3.6341
2957.00,3.6898
2956.00,3.7167
2955.00,3.7147
2954.00,3.6967
2953.00,3.6754
2952.00,3.6517
2951.00,3.6242
2950.00,3.6039
2949.00,3.6081
2948.00,3.6414
2947.00,3.6882
2946.00,3.7179
2945.00,3.7155
2944.00,3.7001
2943.00,3.6968
2942.00,3.7140
2941.00,3.7494
2940.00,3.8046
2939.00,3.8888
2938.00,3.9962
2937.00,4.0748
2936.00,4.0903
2935.00,4.0949
2934.00,4.1597
2933.00,4.3076
2932.00,4.5466
2931.00,4.8222
2930.00,4.7303
2929.00,4.5220
2928.00,4.4431
2927.00,4.5905
2926.00,4.9684
2925.00,5.0307
2924.00,4.7389
2923.00,4.5703
2922.00,4.4749
2921.00,4.2884
2920.00,4.1474
2919.00,4.1373
2918.00,4.3238
2917.00,4.7373
2916.00,4.8657
2915.00,4.6434
2914.00,4.4217
2913.00,4.2896
2912.00,4.1316
2911.00,4.0037
2910.00,3.9416
2909.00,3.8966
2908.00,3.8517
2907.00,3.8119
2906.00,3.7897
2905.00,3.7801
2904.00,3.7658
2903.00,3.7439
2902.00,3.7262
2901.00,3.7182
2900.00,3.7062
2899.00,3.6646
2898.00,3.5915
2897.00,3.5165
2896.00,3.4649
2895.00,3.4388
2894.00,3.4227
2893.00,3.3998
2892.00,3.3665
2891.00,3.3299
2890.00,3.2933
2889.00,3.2533
2888.00,3.2078
2887.00,3.1623
2886.00,3.1250
2885.00,3.0987
2884.00,3.0799
2883.00,3.0635
2882.00,3.0479
2881.00,3.0353
2880.00,3.0290
2879.00,3.0303
2878.00,3.0381
2877.00,3.0515
2876.00,3.0706
2875.00,3.0967
2874.00,3.1286
2873.00,3.1615
2872.00,3.1892
2871.00,3.2088
2870.00,3.2227
2869.00,3.2369
2868.00,3.2563
2867.00,3.2818
2866.00,3.3086
2865.00,3.3306
2864.00,3.3465
2863.00,3.3627
2862.00,3.3878
2861.00,3.4280
2860.00,3.4862
2859.00,3.5628
2858.00,3.6492
2857.00,3.7211
2856.00,3.7593
2855.00,3.7777
2854.00,3.7926
2853.00,3.7873
2852.00,3.7504
2851.00,3.7080
2850.00,3.6841
2849.00,3.6693
2848.00,3.6289
2847.00,3.5392
2846.00,3.4123
2845.00,3.2771
2844.00,3.1516
2843.00,3.0406
2842.00,2.9440
2841.00,2.8598
2840.00,2.7840
2839.00,2.7121
2838.00,2.6419
2837.00,2.5741
2836.00,2.5111
2835.00,2.4541
2834.00,2.4030
2833.00,2.3568
2832.00,2.3149
2831.00,2.2771
2830.00,2.2426
2829.00,2.2108
2828.00,2.1814
2827.00,2.1545
2826.00,2.1301
2825.00,2.1079
2824.00,2.0875
2823.00,2.0684
2822.00,2.0509
2821.00,2.0349
2820.00,2.0202
2819.00,2.0063
2818.00,1.9930
2817.00,1.9808
2816.00,1.9700
2815.00,1.9601
2814.00,1.9504
2813.00,1.9403
2812.00,1.9298
2811.00,1.9196
2810.00,1.9101
2809.00,1.9015
2808.00,1.8933
2807.00,1.8854
2806.00,1.8774
2805.00,1.8697
2804.00,1.8625
2803.00,1.8560
2802.00,1.8499
2801.00,1.8438
2800.00,1.8375
2799.00,1.8314
2798.00,1.8255
2797.00,1.8202
2796.00,1.8153
2795.00,1.8105
2794.00,1.8060
2793.00,1.8016
2792.00,1.7974
2791.00,1.7932
2790.00,1.7888
2789.00,1.7842
2788.00,1.7796
2787.00,1.7755
2786.00,1.7717
2785.00,1.7680
2784.00,1.7642
2783.00,1.7603
2782.00,1.7566
2781.00,1.7533
2780.00,1.7503
2779.00,1.7475
2778.00,1.7446
2777.00,1.7418
2776.00,1.7390
2775.00,1.7363
2774.00,1.7334
2773.00,1.7307
2772.00,1.7284
2771.00,1.7265
2770.00,1.7248
2769.00,1.7231
2768.00,1.7212
2767.00,1.7194
2766.00,1.7177
2765.00,1.7164
2764.00,1.7154
2763.00,1.7147
2762.00,1.7142
2761.00,1.7135
2760.00,1.7129
2759.00,1.7124
2758.00,1.7119
2757.00,1.7115
2756.00,1.7110
2755.00,1.7105
2754.00,1.7101
2753.00,1.7097
2752.00,1.7094
2751.00,1.7090
2750.00,1.7086
2749.00,1.7082
2748.00,1.7079
2747.00,1.7079
2746.00,1.7082
2745.00,1.7088
2744.00,1.7092
2743.00,1.7096
2742.00,1.7101
2741.00,1.7108
2740.00,1.7116
2739.00,1.7125
2738.00,1.7135
2737.00,1.7149
2736.00,1.7169
2735.00,1.7190
2734.00,1.7207
2733.00,1.7221
2732.00,1.7234
2731.00,1.7246
2730.00,1.7257
2729.00,1.7266
2728.00,1.7272
2727.00,1.7273
2726.00,1.7270
2725.00,1.7263
2724.00,1.7252
2723.00,1.7240
2722.00,1.7229
2721.00,1.7218
2720.00,1.7207
2719.00,1.7192
2718.00,1.7175
2717.00,1.7154
2716.00,1.7131
2715.00,1.7108
2714.00,1.7084
2713.00,1.7062
2712.00,1.7043
2711.00,1.7027
2710.00,1.7013
2709.00,1.6999
2708.00,1.6987
2707.00,1.6978
2706.00,1.6971
2705.00,1.6966
2704.00,1.6960
2703.00,1.6954
2702.00,1.6949
2701.00,1.6945
2700.00,1.6943
2699.00,1.6943
2698.00,1.6944
2697.00,1.6946
2696.00,1.6949
2695.00,1.6950
2694.00,1.6951
2693.00,1.6954
2692.00,1.6957
2691.00,1.6960
2690.00,1.6962
2689.00,1.6965
2688.00,1.6970
2687.00,1.6975
2686.00,1.6979
2685.00,1.6978
2684.00,1.6976
2683.00,1.6973
2682.00,1.6973
2681.00,1.6975
2680.00,1.6978
2679.00,1.6979
2678.00,1.6979
2677.00,1.6977
2676.00,1.6975
2675.00,1.6972
2674.00,1.6970
2673.00,1.6969
2672.00,1.6967
2671.00,1.6962
2670.00,1.6954
2669.00,1.6946
2668.00,1.6938
2667.00,1.6931
2666.00,1.6924
2665.00,1.6918
2664.00,1.6912
2663.00,1.6904
2662.00,1.6893
2661.00,1.6882
2660.00,1.6870
2659.00,1.6859
2658.00,1.6846
2657.00,1.6833
2656.00,1.6822
2655.00,1.6813
2654.00,1.6807
2653.00,1.6800
2652.00,1.6792
2651.00,1.6781
2650.00,1.6769
2649.00,1.6757
2648.00,1.6749
2647.00,1.6745
2646.00,1.6741
2645.00,1.6736
2644.00,1.6728
2643.00,1.6718
2642.00,1.6710
2641.00,1.6702
2640.00,1.6695
2639.00,1.6688
2638.00,1.6680
2637.00,1.6672
2636.00,1.6665
2635.00,1.6660
2634.00,1.6656
2633.00,1.6653
2632.00,1.6649
2631.00,1.6644
2630.00,1.6636
2629.00,1.6626
2628.00,1.6617
2627.00,1.6610
2626.00,1.6605
2625.00,1.6599
2624.00,1.6592
2623.00,1.6585
2622.00,1.6580
2621.00,1.6578
2620.00,1.6576
2619.00,1.6572
2618.00,1.6566
2617.00,1.6560
2616.00,1.6553
2615.00,1.6545
2614.00,1.6536
2613.00,1.6527
2612.00,1.6520
2611.00,1.6514
2610.00,1.6507
2609.00,1.6499
2608.00,1.6494
2607.00,1.6489
2606.00,1.6486
2605.00,1.6481
2604.00,1.6474
2603.00,1.6466
2602.00,1.6457
2601.00,1.6447
2600.00,1.6440
2599.00,1.6435
2598.00,1.6431
2597.00,1.6428
2596.00,1.6422
2595.00,1.6412
2594.00,1.6401
2593.00,1.6390
2592.00,1.6381
2591.00,1.6374
2590.00,1.6367
2589.00,1.6358
2588.00,1.6348
2587.00,1.6340
2586.00,1.6334
2585.00,1.6327
2584.00,1.6319
2583.00,1.6309
2582.00,1.6296
2581.00,1.6283
2580.00,1.6270
2579.00,1.6259
2578.00,1.6248
2577.00,1.6239
2576.00,1.6228
2575.00,1.6217
2574.00,1.6207
2573.00,1.6199
2572.00,1.6193
2571.00,1.6186
2570.00,1.6179
2569.00,1.6170
2568.00,1.6162
2567.00,1.6154
2566.00,1.6145
2565.00,1.6135
2564.00,1.6123
2563.00,1.6113
2562.00,1.6106
2561.00,1.6102
2560.00,1.6099
2559.00,1.6096
2558.00,1.6091
2557.00,1.6084
2556.00,1.6077
2555.00,1.6068
2554.00,1.6059
2553.00,1.6049
2552.00,1.6041
2551.00,1.6035
2550.00,1.6032
2549.00,1.6029
2548.00,1.6025
2547.00,1.6019
2546.00,1.6011
2545.00,1.6003
2544.00,1.5996
2543.00,1.5991
2542.00,1.5987
2541.00,1.5983
2540.00,1.5979
2539.00,1.5976
2538.00,1.5973
2537.00,1.5970
2536.00,1.5968
2535.00,1.5965
2534.00,1.5962
2533.00,1.5958
2532.00,1.5952
2531.00,1.5946
2530.00,1.5938
2529.00,1.5931
2528.00,1.5923
2527.00,1.5916
2526.00,1.5908
2525.00,1.5900
2524.00,1.5893
2523.00,1.5887
2522.00,1.5882
2521.00,1.5878
2520.00,1.5875
2519.00,1.5871
2518.00,1.5866
2517.00,1.5861
2516.00,1.5855
2515.00,1.5849
2514.00,1.5843
2513.00,1.5836
2512.00,1.5826
2511.00,1.5817
2510.00,1.5811
2509.00,1.5809
2508.00,1.5811
2507.00,1.5811
2506.00,1.5807
2505.00,1.5800
2504.00,1.5794
2503.00,1.5789
2502.00,1.5785
2501.00,1.5781
2500.00,1.5777
2499.00,1.5774
2498.00,1.5771
2497.00,1.5769
2496.00,1.5768
2495.00,1.5768
2494.00,1.5766
2493.00,1.5763
2492.00,1.5757
2491.00,1.5752
2490.00,1.5747
2489.00,1.5743
2488.00,1.5739
2487.00,1.5736
2486.00,1.5733
2485.00,1.5730
2484.00,1.5728
2483.00,1.5726
2482.00,1.5724
2481.00,1.5721
2480.00,1.5718
2479.00,1.5715
2478.00,1.5712
2477.00,1.5709
2476.00,1.5704
2475.00,1.5699
2474.00,1.5694
2473.00,1.5691
2472.00,1.5690
2471.00,1.5689
2470.00,1.5687
2469.00,1.5683
2468.00,1.5679
2467.00,1.5674
2466.00,1.5672
2465.00,1.5670
2464.00,1.5667
2463.00,1.5663
2462.00,1.5656
2461.00,1.5651
2460.00,1.5649
2459.00,1.5649
2458.00,1.5650
2457.00,1.5650
2456.00,1.5649
2455.00,1.5648
2454.00,1.5647
2453.00,1.5646
2452.00,1.5644
2451.00,1.5641
2450.00,1.5640
2449.00,1.5639
2448.00,1.5639
2447.00,1.5639
2446.00,1.5637
2445.00,1.5634
2444.00,1.5629
2443.00,1.5625
2442.00,1.5622
2441.00,1.5622
2440.00,1.5624
2439.00,1.5625
2438.00,1.5626
2437.00,1.5626
2436.00,1.5625
2435.00,1.5624
2434.00,1.5622
2433.00,1.5620
2432.00,1.5617
2431.00,1.5615
2430.00,1.5613
2429.00,1.5613
2428.00,1.5613
2427.00,1.5612
2426.00,1.5611
2425.00,1.5609
2424.00,1.5608
2423.00,1.5609
2422.00,1.5610
2421.00,1.5612
2420.00,1.5613
2419.00,1.5612
2418.00,1.5610
2417.00,1.5609
2416.00,1.5607
2415.00,1.5606
2414.00,1.5604
2413.00,1.5601
2412.00,1.5599
2411.00,1.5597
2410.00,1.5595
2409.00,1.5593
2408.00,1.5593
2407.00,1.5594
2406.00,1.5595
2405.00,1.5596
2404.00,1.5596
2403.00,1.5594
2402.00,1.5591
2401.00,1.5587
2400.00,1.5584
2399.00,1.5583
2398.00,1.5584
2397.00,1.5585
2396.00,1.5583
2395.00,1.5579
2394.00,1.5574
2393.00,1.5571
2392.00,1.5570
2391.00,1.5571
2390.00,1.5573
2389.00,1.5574
2388.00,1.5573
2387.00,1.5571
2386.00,1.5567
2385.00,1.5563
2384.00,1.5558
2383.00,1.5554
2382.00,1.5553
2381.00,1.5554
2380.00,1.5554
2379.00,1.5551
2378.00,1.5548
2377.00,1.5545
2376.00,1.5543
2375.00,1.5541
2374.00,1.5538
2373.00,1.5538
2372.00,1.5539
2371.00,1.5540
2370.00,1.5540
2369.00,1.5539
2368.00,1.5537
2367.00,1.5534
2366.00,1.5532
2365.00,1.5531
2364.00,1.5531
2363.00,1.5529
2362.00,1.5524
2361.00,1.5520
2360.00,1.5518
2359.00,1.5520
2358.00,1.5525
2357.00,1.5527
2356.00,1.5527
2355.00,1.5524
2354.00,1.5522
2353.00,1.5522
2352.00,1.5522
2351.00,1.5520
2350.00,1.5515
2349.00,1.5510
2348.00,1.5507
2347.00,1.5506
2346.00,1.5504
2345.00,1.5502
2344.00,1.5498
2343.00,1.5496
2342.00,1.5495
2341.00,1.5494
2340.00,1.5493
2339.00,1.5492
2338.00,1.5491
2337.00,1.5492
2336.00,1.5491
2335.00,1.5489
2334.00,1.5486
2333.00,1.5482
2332.00,1.5480
2331.00,1.5478
2330.00,1.5476
2329.00,1.5472
2328.00,1.5468
2327.00,1.5464
2326.00,1.5463
2325.00,1.5465
2324.00,1.5468
2323.00,1.5470
2322.00,1.5468
2321.00,1.5463
2320.00,1.5457
2319.00,1.5451
2318.00,1.5448
2317.00,1.5445
2316.00,1.5444
2315.00,1.5442
2314.00,1.5438
2313.00,1.5435
2312.00,1.5432
2311.00,1.5431
2310.00,1.5429
2309.00,1.5427
2308.00,1.5424
2307.00,1.5421
2306.00,1.5418
2305.00,1.5415
2304.00,1.5410
2303.00,1.5406
2302.00,1.5401
2301.00,1.5398
2300.00,1.5396
2299.00,1.5394
2298.00,1.5393
2297.00,1.5391
2296.00,1.5388
2295.00,1.5385
2294.00,1.5381
2293.00,1.5377
2292.00,1.5374
2291.00,1.5371
2290.00,1.5368
2289.00,1.5365
2288.00,1.5361
2287.00,1.5358
2286.00,1.5355
2285.00,1.5353
2284.00,1.5351
2283.00,1.5348
2282.00,1.5345
2281.00,1.5342
2280.00,1.5340
2279.00,1.5338
2278.00,1.5336
2277.00,1.5334
2276.00,1.5331
2275.00,1.5328
2274.00,1.5326
2273.00,1.5324
2272.00,1.5322
2271.00,1.5319
2270.00,1.5316
2269.00,1.5312
2268.00,1.5308
2267.00,1.5306
2266.00,1.5304
2265.00,1.5302
2264.00,1.5301
2263.00,1.5299
2262.00,1.5297
2261.00,1.5295
2260.00,1.5292
2259.00,1.5289
2258.00,1.5285
2257.00,1.5283
2256.00,1.5279
2255.00,1.5276
2254.00,1.5272
2253.00,1.5269
2252.00,1.5266
2251.00,1.5264
2250.00,1.5264
2249.00,1.5264
2248.00,1.5263
2247.00,1.5261
2246.00,1.5258
2245.00,1.5253
2244.00,1.5249
2243.00,1.5244
2242.00,1.5240
2241.00,1.5238
2240.00,1.5239
2239.00,1.5239
2238.00,1.5239
2237.00,1.5237
2236.00,1.5233
2235.00,1.5230
2234.00,1.5228
2233.00,1.5225
2232.00,1.5222
2231.00,1.5219
2230.00,1.5216
2229.00,1.5214
2228.00,1.5212
2227.00,1.5209
2226.00,1.5208
2225.00,1.5208
2224.00,1.5209
2223.00,1.5209
2222.00,1.5208
2221.00,1.5207
2220.00,1.5204
2219.00,1.5200
2218.00,1.5196
2217.00,1.5194
2216.00,1.5194
2215.00,1.5194
2214.00,1.5193
2213.00,1.5190
2212.00,1.5187
2211.00,1.5184
2210.00,1.5183
2209.00,1.5181
2208.00,1.5179
2207.00,1.5176
2206.00,1.5172
2205.00,1.5170
2204.00,1.5170
2203.00,1.5170
2202.00,1.5169
2201.00,1.5168
2200.00,1.5168
2199.00,1.5168
2198.00,1.5169
2197.00,1.5170
2196.00,1.5171
2195.00,1.5171
2194.00,1.5171
2193.00,1.5169
2192.00,1.5168
2191.00,1.5167
2190.00,1.5165
2189.00,1.5163
2188.00,1.5161
2187.00,1.5160
2186.00,1.5160
2185.00,1.5160
2184.00,1.5159
2183.00,1.5159
2182.00,1.5157
2181.00,1.5155
2180.00,1.5152
2179.00,1.5148
2178.00,1.5146
2177.00,1.5144
2176.00,1.5142
2175.00,1.5141
2174.00,1.5141
2173.00,1.5141
2172.00,1.5140
2171.00,1.5139
2170.00,1.5136
2169.00,1.5134
2168.00,1.5131
2167.00,1.5128
2166.00,1.5125
2165.00,1.5123
2164.00,1.5121
2163.00,1.5119
2162.00,1.5117
2161.00,1.5117
2160.00,1.5117
2159.00,1.5118
2158.00,1.5117
2157.00,1.5114
2156.00,1.5112
2155.00,1.5111
2154.00,1.5110
2153.00,1.5109
2152.00,1.5106
2151.00,1.5102
2150.00,1.5099
2149.00,1.5096
2148.00,1.5093
2147.00,1.5089
2146.00,1.5085
2145.00,1.5082
2144.00,1.5080
2143.00,1.5078
2142.00,1.5075
2141.00,1.5070
2140.00,1.5064
2139.00,1.5059
2138.00,1.5055
2137.00,1.5053
2136.00,1.5053
2135.00,1.5051
2134.00,1.5048
2133.00,1.5045
2132.00,1.5042
2131.00,1.5040
2130.00,1.5039
2129.00,1.5038
2128.00,1.5037
2127.00,1.5036
2126.00,1.5035
2125.00,1.5034
2124.00,1.5033
2123.00,1.5032
2122.00,1.5029
2121.00,1.5026
2120.00,1.5023
2119.00,1.5020
2118.00,1.5019
2117.00,1.5020
2116.00,1.5021
2115.00,1.5020
2114.00,1.5017
2113.00,1.5015
2112.00,1.5013
2111.00,1.5011
2110.00,1.5010
2109.00,1.5008
2108.00,1.5005
2107.00,1.5001
2106.00,1.4997
2105.00,1.4995
2104.00,1.4995
2103.00,1.4994
2102.00,1.4994
2101.00,1.4993
2100.00,1.4991
2099.00,1.4990
2098.00,1.4990
2097.00,1.4988
2096.00,1.4986
2095.00,1.4982
2094.00,1.4978
2093.00,1.4977
2092.00,1.4978
2091.00,1.4978
2090.00,1.4978
2089.00,1.4977
2088.00,1.4975
2087.00,1.4974
2086.00,1.4973
2085.00,1.4972
2084.00,1.4972
2083.00,1.4972
2082.00,1.4974
2081.00,1.4975
2080.00,1.4974
2079.00,1.4971
2078.00,1.4968
2077.00,1.4966
2076.00,1.4967
2075.00,1.4967
2074.00,1.4966
2073.00,1.4964
2072.00,1.4963
2071.00,1.4964
2070.00,1.4966
2069.00,1.4968
2068.00,1.4967
2067.00,1.4965
2066.00,1.4962
2065.00,1.4960
2064.00,1.4959
2063.00,1.4958
2062.00,1.4956
2061.00,1.4955
2060.00,1.4956
2059.00,1.4957
2058.00,1.4957
2057.00,1.4957
2056.00,1.4955
2055.00,1.4954
2054.00,1.4954
2053.00,1.4956
2052.00,1.4959
2051.00,1.4961
2050.00,1.4959
2049.00,1.4956
2048.00,1.4952
2047.00,1.4950
2046.00,1.4949
2045.00,1.4949
2044.00,1.4949
2043.00,1.4950
2042.00,1.4950
2041.00,1.4951
2040.00,1.4952
2039.00,1.4952
2038.00,1.4952
2037.00,1.4952
2036.00,1.4952
2035.00,1.4950
2034.00,1.4947
2033.00,1.4944
2032.00,1.4941
2031.00,1.4939
2030.00,1.4937
2029.00,1.4936
2028.00,1.4938
2027.00,1.4941
2026.00,1.4943
2025.00,1.4943
2024.00,1.4940
2023.00,1.4938
2022.00,1.4938
2021.00,1.4937
2020.00,1.4936
2019.00,1.4932
2018.00,1.4926
2017.00,1.4920
2016.00,1.4913
2015.00,1.4907
2014.00,1.4901
2013.00,1.4896
2012.00,1.4891
2011.00,1.4887
2010.00,1.4882
2009.00,1.4877
2008.00,1.4874
2007.00,1.4873
2006.00,1.4872
2005.00,1.4870
2004.00,1.4869
2003.00,1.4866
2002.00,1.4863
2001.00,1.4860
2000.00,1.4858
1999.00,1.4856
1998.00,1.4852
1997.00,1.4847
1996.00,1.4844
1995.00,1.4843
1994.00,1.4843
1993.00,1.4841
1992.00,1.4840
1991.00,1.4839
1990.00,1.4838
1989.00,1.4837
1988.00,1.4836
1987.00,1.4836
1986.00,1.4836
1985.00,1.4835
1984.00,1.4833
1983.00,1.4830
1982.00,1.4826
1981.00,1.4823
1980.00,1.4821
1979.00,1.4819
1978.00,1.4816
1977.00,1.4811
1976.00,1.4807
1975.00,1.4805
1974.00,1.4805
1973.00,1.4807
1972.00,1.4808
1971.00,1.4807
1970.00,1.4806
1969.00,1.4805
1968.00,1.4804
1967.00,1.4804
1966.00,1.4803
1965.00,1.4803
1964.00,1.4803
1963.00,1.4803
1962.00,1.4804
1961.00,1.4805
1960.00,1.4805
1959.00,1.4805
1958.00,1.4804
1957.00,1.4803
1956.00,1.4804
1955.00,1.4806
1954.00,1.4807
1953.00,1.4807
1952.00,1.4808
1951.00,1.4808
1950.00,1.4807
1949.00,1.4805
1948.00,1.4804
1947.00,1.4805
1946.00,1.4805
1945.00,1.4807
1944.00,1.4810
1943.00,1.4813
1942.00,1.4817
1941.00,1.4819
1940.00,1.4820
1939.00,1.4821
1938.00,1.4822
1937.00,1.4823
1936.00,1.4823
1935.00,1.4823
1934.00,1.4820
1933.00,1.4817
1932.00,1.4814
1931.00,1.4812
1930.00,1.4810
1929.00,1.4810
1928.00,1.4809
1927.00,1.4808
1926.00,1.4804
1925.00,1.4799
1924.00,1.4796
1923.00,1.4796
1922.00,1.4797
1921.00,1.4799
1920.00,1.4800
1919.00,1.4802
1918.00,1.4805
1917.00,1.4809
1916.00,1.4810
1915.00,1.4810
1914.00,1.4807
1913.00,1.4802
1912.00,1.4799
1911.00,1.4796
1910.00,1.4795
1909.00,1.4794
1908.00,1.4792
1907.00,1.4789
1906.00,1.4787
1905.00,1.4786
1904.00,1.4785
1903.00,1.4785
1902.00,1.4785
1901.00,1.4784
1900.00,1.4784
1899.00,1.4782
1898.00,1.4780
1897.00,1.4777
1896.00,1.4776
1895.00,1.4776
1894.00,1.4777
1893.00,1.4777
1892.00,1.4776
1891.00,1.4773
1890.00,1.4771
1889.00,1.4771
1888.00,1.4772
1887.00,1.4772
1886.00,1.4770
1885.00,1.4766
1884.00,1.4763
1883.00,1.4761
1882.00,1.4761
1881.00,1.4762
1880.00,1.4763
1879.00,1.4761
1878.00,1.4756
1877.00,1.4750
1876.00,1.4747
1875.00,1.4746
1874.00,1.4746
1873.00,1.4744
1872.00,1.4740
1871.00,1.4736
1870.00,1.4734
1869.00,1.4733
1868.00,1.4732
1867.00,1.4729
1866.00,1.4726
1865.00,1.4723
1864.00,1.4720
1863.00,1.4716
1862.00,1.4713
1861.00,1.4712
1860.00,1.4713
1859.00,1.4713
1858.00,1.4710
1857.00,1.4705
1856.00,1.4701
1855.00,1.4696
1854.00,1.4692
1853.00,1.4690
1852.00,1.4689
1851.00,1.4689
1850.00,1.4688
1849.00,1.4686
1848.00,1.4685
1847.00,1.4683
1846.00,1.4680
1845.00,1.4679
1844.00,1.4678
1843.00,1.4677
1842.00,1.4674
1841.00,1.4670
1840.00,1.4668
1839.00,1.4665
1838.00,1.4661
1837.00,1.4657
1836.00,1.4653
1835.00,1.4651
1834.00,1.4651
1833.00,1.4652
1832.00,1.4653
1831.00,1.4653
1830.00,1.4650
1829.00,1.4647
1828.00,1.4646
1827.00,1.4646
1826.00,1.4646
1825.00,1.4647
1824.00,1.4648
1823.00,1.4650
1822.00,1.4651
1821.00,1.4652
1820.00,1.4652
1819.00,1.4651
1818.00,1.4649
1817.00,1.4646
1816.00,1.4644
1815.00,1.4643
1814.00,1.4643
1813.00,1.4643
1812.00,1.4644
1811.00,1.4646
1810.00,1.4649
1809.00,1.4653
1808.00,1.4657
1807.00,1.4660
1806.00,1.4662
1805.00,1.4663
1804.00,1.4665
1803.00,1.4669
1802.00,1.4672
1801.00,1.4675
1800.00,1.4676
1799.00,1.4677
1798.00,1.4679
1797.00,1.4682
1796.00,1.4686
1795.00,1.4690
1794.00,1.4692
1793.00,1.4696
1792.00,1.4703
1791.00,1.4713
1790.00,1.4720
1789.00,1.4723
1788.00,1.4726
1787.00,1.4728
1786.00,1.4731
1785.00,1.4735
1784.00,1.4740
1783.00,1.4744
1782.00,1.4748
1781.00,1.4753
1780.00,1.4761
1779.00,1.4770
1778.00,1.4777
1777.00,1.4785
1776.00,1.4794
1775.00,1.4803
1774.00,1.4814
1773.00,1.4827
1772.00,1.4843
1771.00,1.4859
1770.00,1.4876
1769.00,1.4898
1768.00,1.4925
1767.00,1.4955
1766.00,1.4984
1765.00,1.5017
1764.00,1.5060
1763.00,1.5118
1762.00,1.5193
1761.00,1.5283
1760.00,1.5381
1759.00,1.5485
1758.00,1.5605
1757.00,1.5748
1756.00,1.5908
1755.00,1.6066
1754.00,1.6217
1753.00,1.6369
1752.00,1.6531
1751.00,1.6698
1750.00,1.6850
1749.00,1.6967
1748.00,1.7040
1747.00,1.7070
1746.00,1.7068
1745.00,1.7039
1744.00,1.6985
1743.00,1.6911
1742.00,1.6821
1741.00,1.6715
1740.00,1.6591
1739.00,1.6462
1738.00,1.6349
1737.00,1.6256
1736.00,1.6171
1735.00,1.6070
1734.00,1.5954
1733.00,1.5845
1732.00,1.5754
1731.00,1.5676
1730.00,1.5606
1729.00,1.5541
1728.00,1.5484
1727.00,1.5433
1726.00,1.5391
1725.00,1.5354
1724.00,1.5319
1723.00,1.5288
1722.00,1.5263
1721.00,1.5244
1720.00,1.5231
1719.00,1.5220
1718.00,1.5211
1717.00,1.5205
1716.00,1.5201
1715.00,1.5198
1714.00,1.5196
1713.00,1.5195
1712.00,1.5194
1711.00,1.5194
1710.00,1.5193
1709.00,1.5194
1708.00,1.5196
1707.00,1.5197
1706.00,1.5197
1705.00,1.5198
1704.00,1.5198
1703.00,1.5198
1702.00,1.5195
1701.00,1.5187
1700.00,1.5174
1699.00,1.5160
1698.00,1.5146
1697.00,1.5134
1696.00,1.5121
1695.00,1.5107
1694.00,1.5090
1693.00,1.5075
1692.00,1.5063
1691.00,1.5055
1690.00,1.5049
1689.00,1.5045
1688.00,1.5042
1687.00,1.5041
1686.00,1.5042
1685.00,1.5046
1684.00,1.5051
1683.00,1.5055
1682.00,1.5056
1681.00,1.5058
1680.00,1.5063
1679.00,1.5067
1678.00,1.5070
1677.00,1.5073
1676.00,1.5075
1675.00,1.5078
1674.00,1.5082
1673.00,1.5086
1672.00,1.5090
1671.00,1.5093
1670.00,1.5098
1669.00,1.5109
1668.00,1.5124
1667.00,1.5140
1666.00,1.5155
1665.00,1.5170
1664.00,1.5183
1663.00,1.5193
1662.00,1.5204
1661.00,1.5219
1660.00,1.5237
1659.00,1.5253
1658.00,1.5268
1657.00,1.5282
1656.00,1.5298
1655.00,1.5317
1654.00,1.5338
1653.00,1.5363
1652.00,1.5380
1651.00,1.5384
1650.00,1.5382
1649.00,1.5383
1648.00,1.5385
1647.00,1.5384
1646.00,1.5379
1645.00,1.5376
1644.00,1.5372
1643.00,1.5367
1642.00,1.5361
1641.00,1.5357
1640.00,1.5354
1639.00,1.5351
1638.00,1.5350
1637.00,1.5357
1636.00,1.5372
1635.00,1.5391
1634.00,1.5411
1633.00,1.5430
1632.00,1.5450
1631.00,1.5472
1630.00,1.5497
1629.00,1.5526
1628.00,1.5558
1627.00,1.5590
1626.00,1.5623
1625.00,1.5661
1624.00,1.5704
1623.00,1.5750
1622.00,1.5797
1621.00,1.5846
1620.00,1.5897
1619.00,1.5949
1618.00,1.6009
1617.00,1.6085
1616.00,1.6172
1615.00,1.6255
1614.00,1.6328
1613.00,1.6401
1612.00,1.6476
1611.00,1.6551
1610.00,1.6622
1609.00,1.6694
1608.00,1.6762
1607.00,1.6819
1606.00,1.6864
1605.00,1.6904
1604.00,1.6945
1603.00,1.6989
1602.00,1.7038
1601.00,1.7096
1600.00,1.7163
1599.00,1.7233
1598.00,1.7313
1597.00,1.7414
1596.00,1.7539
1595.00,1.7682
1594.00,1.7837
1593.00,1.8009
1592.00,1.8206
1591.00,1.8435
1590.00,1.8714
1589.00,1.9067
1588.00,1.9516
1587.00,2.0072
1586.00,2.0754
1585.00,2.1589
1584.00,2.2590
1583.00,2.3708
1582.00,2.4812
1581.00,2.5716
1580.00,2.6229
1579.00,2.6186
1578.00,2.5528
1577.00,2.4400
1576.00,2.3127
1575.00,2.2029
1574.00,2.1222
1573.00,2.0649
1572.00,2.0217
1571.00,1.9873
1570.00,1.9618
1569.00,1.9492
1568.00,1.9502
1567.00,1.9617
1566.00,1.9815
1565.00,2.0093
1564.00,2.0423
1563.00,2.0746
1562.00,2.1016
1561.00,2.1212
1560.00,2.1250
1559.00,2.0949
1558.00,2.0384
1557.00,1.9828
1556.00,1.9328
1555.00,1.8822
1554.00,1.8328
1553.00,1.7903
1552.00,1.7563
1551.00,1.7278
1550.00,1.7029
1549.00,1.6821
1548.00,1.6656
1547.00,1.6523
1546.00,1.6409
1545.00,1.6310
1544.00,1.6230
1543.00,1.6162
1542.00,1.6102
1541.00,1.6046
1540.00,1.5992
1539.00,1.5943
1538.00,1.5903
1537.00,1.5875
1536.00,1.5858
1535.00,1.5847
1534.00,1.5843
1533.00,1.5852
1532.00,1.5875
1531.00,1.5904
1530.00,1.5935
1529.00,1.5971
1528.00,1.6012
1527.00,1.6054
1526.00,1.6091
1525.00,1.6123
1524.00,1.6150
1523.00,1.6179
1522.00,1.6221
1521.00,1.6282
1520.00,1.6348
1519.00,1.6407
1518.00,1.6462
1517.00,1.6519
1516.00,1.6571
1515.00,1.6602
1514.00,1.6609
1513.00,1.6598
1512.00,1.6576
1511.00,1.6547
1510.00,1.6517
1509.00,1.6487
1508.00,1.6455
1507.00,1.6419
1506.00,1.6392
1505.00,1.6382
1504.00,1.6382
1503.00,1.6389
1502.00,1.6405
1501.00,1.6435
1500.00,1.6483
1499.00,1.6549
1498.00,1.6644
1497.00,1.6787
1496.00,1.6977
1495.00,1.7189
1494.00,1.7393
1493.00,1.7587
1492.00,1.7767
1491.00,1.7920
1490.00,1.8021
1489.00,1.8056
1488.00,1.8036
1487.00,1.7987
1486.00,1.7943
1485.00,1.7924
1484.00,1.7935
1483.00,1.7974
1482.00,1.8047
1481.00,1.8163
1480.00,1.8316
1479.00,1.8501
1478.00,1.8728
1477.00,1.9017
1476.00,1.9369
1475.00,1.9782
1474.00,2.0295
1473.00,2.0979
1472.00,2.1835
1471.00,2.2749
1470.00,2.3611
1469.00,2.4389
1468.00,2.5056
1467.00,2.5574
1466.00,2.5936
1465.00,2.6167
1464.00,2.6292
1463.00,2.6351
1462.00,2.6401
1461.00,2.6453
1460.00,2.6469
1459.00,2.6422
1458.00,2.6358
1457.00,2.6345
1456.00,2.6360
1455.00,2.6331
1454.00,2.6237
1453.00,2.6084
1452.00,2.5874
1451.00,2.5633
1450.00,2.5392
1449.00,2.5148
1448.00,2.4875
1447.00,2.4562
1446.00,2.4229
1445.00,2.3886
1444.00,2.3536
1443.00,2.3189
1442.00,2.2856
1441.00,2.2542
1440.00,2.2248
1439.00,2.1965
1438.00,2.1661
1437.00,2.1304
1436.00,2.0919
1435.00,2.0563
1434.00,2.0252
1433.00,1.9955
1432.00,1.9644
1431.00,1.9318
1430.00,1.8995
1429.00,1.8693
1428.00,1.8433
1427.00,1.8224
1426.00,1.8054
1425.00,1.7910
1424.00,1.7791
1423.00,1.7705
1422.00,1.7650
1421.00,1.7613
1420.00,1.7584
1419.00,1.7564
1418.00,1.7555
1417.00,1.7549
1416.00,1.7545
1415.00,1.7546
1414.00,1.7549
1413.00,1.7552
1412.00,1.7558
1411.00,1.7570
1410.00,1.7586
1409.00,1.7598
1408.00,1.7595
1407.00,1.7572
1406.00,1.7517
1405.00,1.7427
1404.00,1.7313
1403.00,1.7199
1402.00,1.7094
1401.00,1.6997
1400.00,1.6904
1399.00,1.6825
1398.00,1.6765
1397.00,1.6724
1396.00,1.6699
1395.00,1.6689
1394.00,1.6697
1393.00,1.6721
1392.00,1.6766
1391.00,1.6842
1390.00,1.6957
1389.00,1.7123
1388.00,1.7359
1387.00,1.7665
1386.00,1.8010
1385.00,1.8361
1384.00,1.8713
1383.00,1.9086
1382.00,1.9494
1381.00,1.9936
1380.00,2.0390
1379.00,2.0809
1378.00,2.1120
1377.00,2.1262
1376.00,2.1211
1375.00,2.0977
1374.00,2.0613
1373.00,2.0206
1372.00,1.9830
1371.00,1.9519
1370.00,1.9282
1369.00,1.9117
1368.00,1.9017
1367.00,1.8958
1366.00,1.8903
1365.00,1.8813
1364.00,1.8663
1363.00,1.8455
1362.00,1.8221
1361.00,1.8001
1360.00,1.7818
1359.00,1.7675
1358.00,1.7565
1357.00,1.7486
1356.00,1.7434
1355.00,1.7407
1354.00,1.7398
1353.00,1.7400
1352.00,1.7404
1351.00,1.7406
1350.00,1.7401
1349.00,1.7393
1348.00,1.7387
1347.00,1.7386
1346.00,1.7388
1345.00,1.7388
1344.00,1.7381
1343.00,1.7366
1342.00,1.7342
1341.00,1.7309
1340.00,1.7266
1339.00,1.7213
1338.00,1.7150
1337.00,1.7083
1336.00,1.7012
1335.00,1.6942
1334.00,1.6874
1333.00,1.6812
1332.00,1.6759
1331.00,1.6717
1330.00,1.6684
1329.00,1.6661
1328.00,1.6648
1327.00,1.6650
1326.00,1.6665
1325.00,1.6694
1324.00,1.6733
1323.00,1.6783
1322.00,1.6839
1321.00,1.6896
1320.00,1.6952
1319.00,1.7004
1318.00,1.7049
1317.00,1.7088
1316.00,1.7124
1315.00,1.7161
1314.00,1.7200
1313.00,1.7241
1312.00,1.7279
1311.00,1.7311
1310.00,1.7331
1309.00,1.7340
1308.00,1.7340
1307.00,1.7340
1306.00,1.7343
1305.00,1.7347
1304.00,1.7346
1303.00,1.7337
1302.00,1.7321
1301.00,1.7301
1300.00,1.7278
1299.00,1.7248
1298.00,1.7207
1297.00,1.7155
1296.00,1.7099
1295.00,1.7046
1294.00,1.7000
1293.00,1.6958
1292.00,1.6920
1291.00,1.6882
1290.00,1.6844
1289.00,1.6806
1288.00,1.6769
1287.00,1.6734
1286.00,1.6700
1285.00,1.6664
1284.00,1.6628
1283.00,1.6595
1282.00,1.6568
1281.00,1.6545
1280.00,1.6526
1279.00,1.6510
1278.00,1.6495
1277.00,1.6477
1276.00,1.6456
1275.00,1.6434
1274.00,1.6415
1273.00,1.6399
1272.00,1.6388
1271.00,1.6383
1270.00,1.6383
1269.00,1.6385
1268.00,1.6383
1267.00,1.6371
1266.00,1.6352
1265.00,1.6330
1264.00,1.6311
1263.00,1.6298
1262.00,1.6295
1261.00,1.6300
1260.00,1.6312
1259.00,1.6328
1258.00,1.6343
1257.00,1.6355
1256.00,1.6367
1255.00,1.6380
1254.00,1.6392
1253.00,1.6401
1252.00,1.6410
1251.00,1.6422
1250.00,1.6434
1249.00,1.6441
1248.00,1.6441
1247.00,1.6438
1246.00,1.6434
1245.00,1.6431
1244.00,1.6428
1243.00,1.6422
1242.00,1.6416
1241.00,1.6413
1240.00,1.6414
1239.00,1.6419
1238.00,1.6422
1237.00,1.6420
1236.00,1.6415
1235.00,1.6412
1234.00,1.6411
1233.00,1.6408
1232.00,1.6401
1231.00,1.6393
1230.00,1.6388
1229.00,1.6383
1228.00,1.6373
1227.00,1.6352
1226.00,1.6319
1225.00,1.6277
1224.00,1.6236
1223.00,1.6206
1222.00,1.6189
1221.00,1.6183
1220.00,1.6186
1219.00,1.6201
1218.00,1.6223
1217.00,1.6250
1216.00,1.6280
1215.00,1.6312
1214.00,1.6345
1213.00,1.6372
1212.00,1.6386
1211.00,1.6385
1210.00,1.6370
1209.00,1.6343
1208.00,1.6309
1207.00,1.6273
1206.00,1.6241
1205.00,1.6218
1204.00,1.6208
1203.00,1.6215
1202.00,1.6244
1201.00,1.6295
1200.00,1.6370
1199.00,1.6465
1198.00,1.6574
1197.00,1.6690
1196.00,1.6810
1195.00,1.6928
1194.00,1.7033
1193.00,1.7112
1192.00,1.7160
1191.00,1.7178
1190.00,1.7169
1189.00,1.7132
1188.00,1.7071
1187.00,1.6991
1186.00,1.6903
1185.00,1.6816
1184.00,1.6739
1183.00,1.6679
1182.00,1.6637
1181.00,1.6612
1180.00,1.6606
1179.00,1.6615
1178.00,1.6631
1177.00,1.6643
1176.00,1.6647
1175.00,1.6648
1174.00,1.6654
1173.00,1.6667
1172.00,1.6682
1171.00,1.6698
1170.00,1.6713
1169.00,1.6729
1168.00,1.6747
1167.00,1.6774
1166.00,1.6812
1165.00,1.6855
1164.00,1.6891
1163.00,1.6905
1162.00,1.6889
1161.00,1.6842
1160.00,1.6771
1159.00,1.6689
1158.00,1.6606
1157.00,1.6526
1156.00,1.6450
1155.00,1.6380
1154.00,1.6318
1153.00,1.6258
1152.00,1.6197
1151.00,1.6136
1150.00,1.6082
1149.00,1.6039
1148.00,1.6004
1147.00,1.5974
1146.00,1.5946
1145.00,1.5922
1144.00,1.5904
1143.00,1.5890
1142.00,1.5880
1141.00,1.5874
1140.00,1.5872
1139.00,1.5879
1138.00,1.5894
1137.00,1.5914
1136.00,1.5932
1135.00,1.5944
1134.00,1.5950
1133.00,1.5943
1132.00,1.5918
1131.00,1.5870
1130.00,1.5805
1129.00,1.5736
1128.00,1.5674
1127.00,1.5626
1126.00,1.5592
1125.00,1.5570
1124.00,1.5557
1123.00,1.5550
1122.00,1.5549
1121.00,1.5548
1120.00,1.5548
1119.00,1.5550
1118.00,1.5564
1117.00,1.5593
1116.00,1.5634
1115.00,1.5676
1114.00,1.5702
1113.00,1.5699
1112.00,1.5663
1111.00,1.5601
1110.00,1.5531
1109.00,1.5469
1108.00,1.5423
1107.00,1.5394
1106.00,1.5381
1105.00,1.5382
1104.00,1.5396
1103.00,1.5420
1102.00,1.5447
1101.00,1.5476
1100.00,1.5506
1099.00,1.5538
1098.00,1.5566
1097.00,1.5585
1096.00,1.5595
1095.00,1.5596
1094.00,1.5593
1093.00,1.5585
1092.00,1.5578
1091.00,1.5574
1090.00,1.5576
1089.00,1.5586
1088.00,1.5606
1087.00,1.5636
1086.00,1.5673
1085.00,1.5713
1084.00,1.5753
1083.00,1.5793
1082.00,1.5829
1081.00,1.5857
1080.00,1.5876
1079.00,1.5886
1078.00,1.5886
1077.00,1.5870
1076.00,1.5837
1075.00,1.5790
1074.00,1.5736
1073.00,1.5682
1072.00,1.5628
1071.00,1.5578
1070.00,1.5529
1069.00,1.5478
1068.00,1.5422
1067.00,1.5364
1066.00,1.5311
1065.00,1.5270
1064.00,1.5241
1063.00,1.5223
1062.00,1.5211
1061.00,1.5200
1060.00,1.5188
1059.00,1.5176
1058.00,1.5162
1057.00,1.5145
1056.00,1.5124
1055.00,1.5102
1054.00,1.5084
1053.00,1.5077
1052.00,1.5083
1051.00,1.5101
1050.00,1.5124
1049.00,1.5146
1048.00,1.5162
1047.00,1.5171
1046.00,1.5175
1045.00,1.5175
1044.00,1.5176
1043.00,1.5179
1042.00,1.5185
1041.00,1.5193
1040.00,1.5205
1039.00,1.5221
1038.00,1.5238
1037.00,1.5252
1036.00,1.5262
1035.00,1.5269
1034.00,1.5272
1033.00,1.5273
1032.00,1.5277
1031.00,1.5294
1030.00,1.5332
1029.00,1.5385
1028.00,1.5439
1027.00,1.5472
1026.00,1.5467
1025.00,1.5419
1024.00,1.5336
1023.00,1.5238
1022.00,1.5142
1021.00,1.5059
1020.00,1.4988
1019.00,1.4929
1018.00,1.4880
1017.00,1.4842
1016.00,1.4819
1015.00,1.4816
1014.00,1.4840
1013.00,1.4892
1012.00,1.4964
1011.00,1.5042
1010.00,1.5103
1009.00,1.5121
1008.00,1.5089
1007.00,1.5018
1006.00,1.4933
1005.00,1.4860
1004.00,1.4811
1003.00,1.4790
1002.00,1.4793
1001.00,1.4813
1000.00,1.4841
999.00,1.4867
998.00,1.4883
997.00,1.4889
996.00,1.4892
995.00,1.4896
994.00,1.4904
993.00,1.4915
992.00,1.4931
991.00,1.4952
990.00,1.4977
989.00,1.5007
988.00,1.5044
987.00,1.5095
986.00,1.5159
985.00,1.5236
984.00,1.5322
983.00,1.5414
982.00,1.5513
981.00,1.5617
980.00,1.5722
979.00,1.5826
978.00,1.5931
977.00,1.6044
976.00,1.6165
975.00,1.6293
974.00,1.6419
973.00,1.6538
972.00,1.6649
971.00,1.6751
970.00,1.6838
969.00,1.6908
968.00,1.6960
967.00,1.6996
966.00,1.7014
965.00,1.7011
964.00,1.6984
963.00,1.6937
962.00,1.6876
961.00,1.6804
960.00,1.6721
959.00,1.6629
958.00,1.6530
957.00,1.6424
956.00,1.6305
955.00,1.6165
954.00,1.6004
953.00,1.5830
952.00,1.5658
951.00,1.5497
950.00,1.5349
949.00,1.5214
948.00,1.5091
947.00,1.4986
946.00,1.4901
945.00,1.4839
944.00,1.4801
943.00,1.4783
942.00,1.4777
941.00,1.4776
940.00,1.4778
939.00,1.4779
938.00,1.4776
937.00,1.4767
936.00,1.4750
935.00,1.4728
934.00,1.4706
933.00,1.4685
932.00,1.4664
931.00,1.4641
930.00,1.4616
929.00,1.4593
928.00,1.4577
927.00,1.4573
926.00,1.4579
925.00,1.4595
924.00,1.4620
923.00,1.4658
922.00,1.4703
921.00,1.4742
920.00,1.4758
919.00,1.4745
918.00,1.4707
917.00,1.4657
916.00,1.4606
915.00,1.4556
914.00,1.4506
913.00,1.4458
912.00,1.4417
911.00,1.4387
910.00,1.4367
909.00,1.4352
908.00,1.4340
907.00,1.4333
906.00,1.4331
905.00,1.4332
904.00,1.4336
903.00,1.4340
902.00,1.4346
901.00,1.4353
900.00,1.4362
899.00,1.4376
898.00,1.4391
897.00,1.4403
896.00,1.4414
895.00,1.4427
894.00,1.4450
893.00,1.4480
892.00,1.4511
891.00,1.4537
890.00,1.4553
889.00,1.4556
888.00,1.4547
887.00,1.4523
886.00,1.4489
885.00,1.4450
884.00,1.4415
883.00,1.4390
882.00,1.4377
881.00,1.4373
880.00,1.4374
879.00,1.4373
878.00,1.4368
877.00,1.4363
876.00,1.4367
875.00,1.4382
874.00,1.4400
873.00,1.4411
872.00,1.4413
871.00,1.4411
870.00,1.4408
869.00,1.4405
868.00,1.4406
867.00,1.4413
866.00,1.4427
865.00,1.4448
864.00,1.4474
863.00,1.4499
862.00,1.4511
861.00,1.4497
860.00,1.4457
859.00,1.4401
858.00,1.4342
857.00,1.4285
856.00,1.4232
855.00,1.4187
854.00,1.4149
853.00,1.4120
852.00,1.4097
851.00,1.4083
850.00,1.4077
849.00,1.4072
848.00,1.4064
847.00,1.4054
846.00,1.4049
845.00,1.4051
844.00,1.4060
843.00,1.4076
842.00,1.4099
841.00,1.4136
840.00,1.4191
839.00,1.4264
838.00,1.4348
837.00,1.4426
836.00,1.4484
835.00,1.4509
834.00,1.4496
833.00,1.4448
832.00,1.4380
831.00,1.4316
830.00,1.4276
829.00,1.4261
828.00,1.4263
827.00,1.4275
826.00,1.4294
825.00,1.4322
824.00,1.4355
823.00,1.4388
822.00,1.4415
821.00,1.4432
820.00,1.4437
819.00,1.4433
818.00,1.4425
817.00,1.4415
816.00,1.4403
815.00,1.4385
814.00,1.4366
813.00,1.4348
812.00,1.4333
811.00,1.4315
810.00,1.4291
809.00,1.4259
808.00,1.4222
807.00,1.4189
806.00,1.4160
805.00,1.4131
804.00,1.4102
803.00,1.4075
802.00,1.4059
801.00,1.4058
800.00,1.4069
799.00,1.4084
798.00,1.4098
797.00,1.4111
796.00,1.4126
795.00,1.4148
794.00,1.4177
793.00,1.4208
792.00,1.4239
791.00,1.4274
790.00,1.4314
789.00,1.4357
788.00,1.4396
787.00,1.4425
786.00,1.4445
785.00,1.4459
784.00,1.4474
783.00,1.4497
782.00,1.4530
781.00,1.4572
780.00,1.4620
779.00,1.4668
778.00,1.4708
777.00,1.4735
776.00,1.4750
775.00,1.4756
774.00,1.4760
773.00,1.4763
772.00,1.4770
771.00,1.4783
770.00,1.4800
769.00,1.4817
768.00,1.4830
767.00,1.4843
766.00,1.4859
765.00,1.4882
764.00,1.4910
763.00,1.4942
762.00,1.4981
761.00,1.5027
760.00,1.5081
759.00,1.5138
758.00,1.5195
757.00,1.5246
756.00,1.5287
755.00,1.5315
754.00,1.5326
753.00,1.5318
752.00,1.5285
751.00,1.5228
750.00,1.5155
749.00,1.5084
748.00,1.5026
747.00,1.4986
746.00,1.4959
745.00,1.4939
744.00,1.4925
743.00,1.4919
742.00,1.4922
741.00,1.4934
740.00,1.4947
739.00,1.4959
738.00,1.4969
737.00,1.4987
736.00,1.5021
735.00,1.5071
734.00,1.5131
733.00,1.5192
732.00,1.5259
731.00,1.5340
730.00,1.5435
729.00,1.5539
728.00,1.5658
727.00,1.5810
726.00,1.6005
725.00,1.6232
724.00,1.6456
723.00,1.6633
722.00,1.6725
721.00,1.6702
720.00,1.6555
719.00,1.6303
718.00,1.5995
717.00,1.5687
716.00,1.5420
715.00,1.5210
714.00,1.5050
713.00,1.4923
712.00,1.4817
711.00,1.4728
710.00,1.4652
709.00,1.4581
708.00,1.4513
707.00,1.4450
706.00,1.4397
705.00,1.4350
704.00,1.4304
703.00,1.4258
702.00,1.4217
701.00,1.4183
700.00,1.4153
699.00,1.4122
698.00,1.4085
697.00,1.4046
696.00,1.4014
695.00,1.3998
694.00,1.4001
693.00,1.4022
692.00,1.4061
691.00,1.4118
690.00,1.4181
689.00,1.4225
688.00,1.4221
687.00,1.4159
686.00,1.4047
685.00,1.3910
684.00,1.3775
683.00,1.3663
682.00,1.3584
681.00,1.3534
680.00,1.3508
679.00,1.3497
678.00,1.3491
677.00,1.3483
676.00,1.3478
675.00,1.3480
674.00,1.3490
673.00,1.3500
672.00,1.3504
671.00,1.3504
670.00,1.3505
669.00,1.3507
668.00,1.3505
667.00,1.3498
666.00,1.3495
665.00,1.3498
664.00,1.3499
663.00,1.3498
662.00,1.3499
661.00,1.3503
660.00,1.3505
659.00,1.3502
658.00,1.3496
657.00,1.3494
656.00,1.3497
655.00,1.3504
654.00,1.3509
653.00,1.3508
652.00,1.3504
651.00,1.3505
650.00,1.3513
649.00,1.3523
648.00,1.3529
647.00,1.3533
646.00,1.3542
645.00,1.3556
644.00,1.3573
643.00,1.3586
642.00,1.3595
641.00,1.3602
640.00,1.3612
639.00,1.3629
638.00,1.3650
637.00,1.3669
636.00,1.3682
635.00,1.3686
634.00,1.3682
633.00,1.3675
632.00,1.3668
631.00,1.3664
630.00,1.3666
629.00,1.3672
628.00,1.3685
627.00,1.3705
626.00,1.3731
625.00,1.3759
624.00,1.3788
623.00,1.3820
622.00,1.3853
621.00,1.3885
620.00,1.3915
619.00,1.3942
618.00,1.3961
617.00,1.3965
616.00,1.3953
615.00,1.3933
614.00,1.3912
613.00,1.3891
612.00,1.3867
611.00,1.3840
610.00,1.3817
609.00,1.3800
608.00,1.3790
607.00,1.3784
606.00,1.3781
605.00,1.3778
604.00,1.3774
603.00,1.3771
602.00,1.3771
601.00,1.3771
600.00,1.3769
599.00,1.3768
598.00,1.3768
597.00,1.3769
596.00,1.3772
595.00,1.3780
594.00,1.3800
593.00,1.3829
592.00,1.3862
591.00,1.3897
590.00,1.3936
589.00,1.3977
588.00,1.4014
587.00,1.4046
586.00,1.4075
585.00,1.4103
584.00,1.4126
583.00,1.4143
582.00,1.4156
581.00,1.4171
580.00,1.4184
579.00,1.4189
578.00,1.4184
577.00,1.4172
576.00,1.4160
575.00,1.4157
574.00,1.4168
573.00,1.4193
572.00,1.4224
571.00,1.4253
570.00,1.4271
569.00,1.4279
568.00,1.4277
567.00,1.4271
566.00,1.4264
565.00,1.4262
564.00,1.4266
563.00,1.4274
562.00,1.4281
561.00,1.4282
560.00,1.4275
559.00,1.4267
558.00,1.4268
557.00,1.4280
556.00,1.4303
555.00,1.4333
554.00,1.4360
553.00,1.4371
552.00,1.4363
551.00,1.4352
550.00,1.4357
